# energy mu dmude
7.517209612000000561e+03 6.486521079436560200e-01 5.986914069151004286e-05
7.522209612000000561e+03 6.478931883658169966e-01 2.689387673912357673e-05
7.527209612000000561e+03 6.466459829049540087e-01 -9.959645842328013047e-06
7.532209612000000561e+03 6.453413495811319844e-01 -1.828197466870726113e-05
7.537209612000000561e+03 6.439709100595599756e-01 -7.080950283706104256e-06
7.542209612000000561e+03 6.428321374879220063e-01 5.143012339756953225e-06
7.547209612000000561e+03 6.416427060211230549e-01 -3.593013261249015280e-06
7.552209612000000561e+03 6.403745735152970298e-01 -3.538538225542372713e-06
7.557209612000000561e+03 6.391859486952909952e-01 -1.128489546383588885e-06
7.562209612000000561e+03 6.379535033260149701e-01 -1.057056870274512581e-05
7.567209612000000561e+03 6.366250635839779681e-01 -1.254065398992657857e-05
7.572209612000000561e+03 6.353634458982809763e-01 -7.225938095124987701e-06
7.577209612000000561e+03 6.341137045632520008e-01 -6.576982525209601601e-06
7.582209612000000561e+03 6.328616963789059913e-01 -4.553998793898375113e-06
7.587209612000000561e+03 6.316419106614880041e-01 6.675813648985123093e-06
7.592209612000000561e+03 6.305561895125629812e-01 9.713673345803593747e-06
7.597209612000000561e+03 6.293813873320990293e-01 1.345899181660983003e-06
7.602209612000000561e+03 6.281717591842009840e-01 -3.555171896335385640e-06
7.607209612000000561e+03 6.269243837008350306e-01 5.352537448682093078e-06
7.612209612000000561e+03 6.258466577184369495e-01 6.346496734557649584e-06
7.617209612000000561e+03 6.246140004277229707e-01 7.799533873068374175e-06
7.622209612000000561e+03 6.235577904981840502e-01 1.424647868704069334e-05
7.627209612000000561e+03 6.224205972542730114e-01 1.342230963474159790e-05
7.632209612000000561e+03 6.213521833249709969e-01 1.720776315597709918e-05
7.637209612000000561e+03 6.202710437192640036e-01 1.854102791820900863e-05
7.642209612000000561e+03 6.192223722964259602e-01 1.568635937549811888e-05
7.647209612000000561e+03 6.180989617826789795e-01 2.355450439182035893e-05
7.652209612000000561e+03 6.171667990295699457e-01 4.036040098206341675e-05
7.657209612000000561e+03 6.162922442056040229e-01 4.535130958583888464e-05
7.662209612000000561e+03 6.154339850372609888e-01 5.214309191707265249e-05
7.667209612000000561e+03 6.146600004903880476e-01 6.451721321124358817e-05
7.672209612000000561e+03 6.139849728725640388e-01 9.035427596267917700e-05
7.677209612000000561e+03 6.135935742852319796e-01 1.043434733863242539e-04
7.679140000000000327e+03 6.133894590562799509e-01 1.199534405957673576e-04
7.680140000000000327e+03 6.134095071233910401e-01 1.588260288701182511e-04
7.681140000000000327e+03 6.133789548475939712e-01 1.758411063429961892e-04
7.682140000000000327e+03 6.134493935477599580e-01 1.676997381342189980e-04
7.683140000000000327e+03 6.133947303798069628e-01 1.568708453306547936e-04
7.684140000000000327e+03 6.134330990077370149e-01 1.791293055170045841e-04
7.685140000000000327e+03 6.134443548990069495e-01 1.664593383930875175e-04
7.686140000000000327e+03 6.134452010610430550e-01 1.834824601509200286e-04
7.686340000000000146e+03 6.134818648048500078e-01 3.552758902876645562e-04
7.686539999999999964e+03 6.135594585831880554e-01 -8.427531349511781008e-06
7.686740000000000691e+03 6.133806987335409522e-01 -2.874989077402499552e-04
7.686940000000000509e+03 6.132929969574359985e-01 3.249600446087891076e-04
7.687140000000000327e+03 6.134770000088479724e-01 6.065310792201714356e-04
7.687340000000000146e+03 6.135560743488860380e-01 1.219285352878311660e-04
7.687539999999999964e+03 6.134530445729989845e-01 1.573105839879887957e-04
7.687740000000000691e+03 6.135530759005749513e-01 4.209331783919444624e-04
7.687940000000000509e+03 6.136061912781940464e-01 2.956044979883162035e-04
7.688140000000000327e+03 6.136319897196069739e-01 2.613437475566948048e-04
7.688340000000000146e+03 6.136648122609940081e-01 -1.984556003731854281e-05
7.688539999999999964e+03 6.135240606853350487e-01 -4.006553417646708767e-05
7.688740000000000691e+03 6.135449068216910495e-01 3.230549730644862198e-04
7.688940000000000509e+03 6.136192335759930172e-01 3.257909855792132494e-04
7.689140000000000327e+03 6.136417002680339960e-01 2.930046428396445007e-04
7.689340000000000146e+03 6.136966074861179843e-01 3.800313134886806193e-04
7.689539999999999964e+03 6.137706205673379989e-01 2.253788466182755218e-04
7.689740000000000691e+03 6.137339262547030216e-01 -4.902752694211233686e-05
7.689940000000000509e+03 6.136454068890380142e-01 1.064332175217524030e-04
7.690140000000000327e+03 6.137007928545119562e-01 6.753995817417974504e-04
7.690340000000000146e+03 6.139492754839970257e-01 3.461757774141423910e-04
7.690539999999999964e+03 6.138096603283389463e-01 -9.368489384164981808e-05
7.690740000000000691e+03 6.137976109947359538e-01 1.871415751474064424e-04
7.690940000000000509e+03 6.138243309447920515e-01 6.176432012916099759e-04
7.691140000000000327e+03 6.140672701589300342e-01 8.129313916001278941e-04
7.691340000000000146e+03 6.142096604085010014e-01 2.465631049124051969e-04
7.691539999999999964e+03 6.141171364835039670e-01 -8.639831987912036570e-05
7.691740000000000691e+03 6.140623117982050294e-01 1.464818029175016326e-05
7.691940000000000509e+03 6.140296382866979874e-01 6.561083972349804512e-04
7.692140000000000327e+03 6.143547541154850133e-01 3.178857606420686555e-04
7.692340000000000146e+03 6.141217494236049790e-01 1.640089767776515661e-04
7.692539999999999964e+03 6.143557231631040505e-01 1.004044501226266381e-03
7.692740000000000691e+03 6.146202762629310312e-01 4.928284728609467471e-04
7.692940000000000509e+03 6.145514538577959707e-01 -3.634316227806357069e-04
7.693140000000000327e+03 6.143088392606459447e-01 4.932985683447626158e-04
7.693340000000000146e+03 6.147474629927009993e-01 8.538905173063863650e-04
7.693539999999999964e+03 6.147184290461430445e-01 -5.462928762269834472e-05
7.693740000000000691e+03 6.146189313598710013e-01 1.920557696064596732e-04
7.693940000000000509e+03 6.147360103677650400e-01 6.922424803317946606e-04
7.694140000000000327e+03 6.149327760989149461e-01 6.116931623005573927e-04
7.694340000000000146e+03 6.150021452902160179e-01 7.596206332091695276e-05
7.694539999999999964e+03 6.148815944617700424e-01 3.754317262124962432e-04
7.694740000000000691e+03 6.151283412279650031e-01 1.144358358194132175e-03
7.694940000000000509e+03 6.154632299920820282e-01 8.053121158891669460e-04
7.695140000000000327e+03 6.155091577515819923e-01 5.407730279312628063e-04
7.695340000000000146e+03 6.156873585178780361e-01 3.607998073332194006e-04
7.695539999999999964e+03 6.156266871210319680e-01 2.794387190091490031e-04
7.695740000000000691e+03 6.157566972546000272e-01 4.612591425237856299e-04
7.695940000000000509e+03 6.158037191228340479e-01 5.846957577768861465e-04
7.696140000000000327e+03 6.160068414616759469e-01 8.506431718924328984e-04
7.696340000000000146e+03 6.162113854872780516e-01 7.529430870303927166e-04
7.696539999999999964e+03 6.163566395133419640e-01 3.189155101241788115e-04
7.696740000000000691e+03 6.163041065506269511e-01 7.662241186870702913e-04
7.696940000000000509e+03 6.167143039951660244e-01 7.156293435469136431e-04
7.697140000000000327e+03 6.166318034610109855e-01 3.462802306173886008e-04
7.697340000000000146e+03 6.168232333372160037e-01 7.593505871354830263e-04
7.697539999999999964e+03 6.169853967112249871e-01 8.615428982081855354e-04
7.697740000000000691e+03 6.172373556711979736e-01 7.858643252504592114e-04
7.697940000000000509e+03 6.173546941984660030e-01 5.253666795607697280e-04
7.698140000000000327e+03 6.174523589297280513e-01 7.890577976345474051e-04
7.698340000000000146e+03 6.177258831974590247e-01 9.508177957763949348e-04
7.698539999999999964e+03 6.179193592904069776e-01 8.866448991047118150e-04
7.698740000000000691e+03 6.181548735885290524e-01 8.262075571813681275e-04
7.698940000000000509e+03 6.183125523020700509e-01 1.144461417305138624e-03
7.699140000000000327e+03 6.187365701613339874e-01 1.631676246691087136e-03
7.699340000000000146e+03 6.191828289736209801e-01 1.204710626167424014e-03
7.699539999999999964e+03 6.193539526812700258e-01 7.519697784071791100e-04
7.699740000000000691e+03 6.195320505290859980e-01 6.760119067973824249e-04
7.699940000000000509e+03 6.196581839598229724e-01 1.146099627039500217e-03
7.700140000000000327e+03 6.201147174227810144e-01 1.302038586247604652e-03
7.700340000000000146e+03 6.203332143809240362e-01 9.691925953893472129e-04
7.700539999999999964e+03 6.205926012811839865e-01 8.887169491234304637e-04
7.700740000000000691e+03 6.207634320589380250e-01 1.009721174326739341e-03
7.700940000000000509e+03 6.210944904460899973e-01 9.826711345321688905e-04
7.701140000000000327e+03 6.212492993322989987e-01 1.220917016413352848e-03
7.701340000000000146e+03 6.217214721026189661e-01 1.834906158139467530e-03
7.701539999999999964e+03 6.222399502297080165e-01 1.405526068387054741e-03
7.701740000000000691e+03 6.224577987446360261e-01 1.499868304922041297e-03
7.701940000000000509e+03 6.230321563119499695e-01 1.732104816614513142e-03
7.702140000000000327e+03 6.233875598260969486e-01 1.457462787326427008e-03
7.702340000000000146e+03 6.237992453663060433e-01 1.904615449654898729e-03
7.702539999999999964e+03 6.244194999310910266e-01 2.231406902664804463e-03
7.702740000000000691e+03 6.250247458969939718e-01 2.304086547071896793e-03
7.702940000000000509e+03 6.256880490261800265e-01 2.173754243380023130e-03
7.703140000000000327e+03 6.262160984315470191e-01 2.282579393322897113e-03
7.703340000000000146e+03 6.269438593124729842e-01 2.910650212501689725e-03
7.703539999999999964e+03 6.278439186159100460e-01 2.840415676587891829e-03
7.703740000000000691e+03 6.285300791840270351e-01 2.449619349544661547e-03
7.703940000000000509e+03 6.291986676129219802e-01 2.658328979512857276e-03
7.704140000000000327e+03 6.300084480751619864e-01 3.152800396733617186e-03
7.704340000000000146e+03 6.309699147208149839e-01 3.690100921358522006e-03
7.704539999999999964e+03 6.320979413223359877e-01 3.713864346687102084e-03
7.704740000000000691e+03 6.330734831792029782e-01 3.936579899943809524e-03
7.704940000000000509e+03 6.343334254624209967e-01 4.851889973223236230e-03
7.705140000000000327e+03 6.358511106519539879e-01 5.298201066175099033e-03
7.705340000000000146e+03 6.373754055195089974e-01 5.377253377883407098e-03
7.705539999999999964e+03 6.389399138403240030e-01 5.972808606590310557e-03
7.705740000000000691e+03 6.408169594378380074e-01 6.815668049376432183e-03
7.705940000000000509e+03 6.428806981731609582e-01 7.636467838931157263e-03
7.706140000000000327e+03 6.452439081278119604e-01 8.935667377373739464e-03
7.706340000000000146e+03 6.480771700969969462e-01 1.023045929737372191e-02
7.706539999999999964e+03 6.512072926281800012e-01 1.184590688053747606e-02
7.706740000000000691e+03 6.549973933365790257e-01 1.417834499355032779e-02
7.706940000000000509e+03 6.595090321525229893e-01 1.703541310795069971e-02
7.707140000000000327e+03 6.649913904623739880e-01 2.068466042832035195e-02
7.707340000000000146e+03 6.716644991034219636e-01 2.561827572807488448e-02
7.707539999999999964e+03 6.800690656559329472e-01 3.232767393558011459e-02
7.707740000000000691e+03 6.907161887983650495e-01 4.135176166220177335e-02
7.707940000000000509e+03 7.044657735444499469e-01 5.146595182946792080e-02
7.708140000000000327e+03 7.211035887207369877e-01 6.226259875679704403e-02
7.708340000000000146e+03 7.412480884991520247e-01 7.332396424683755576e-02
7.708539999999999964e+03 7.644376130095009714e-01 8.214826714156893417e-02
7.708740000000000691e+03 7.898087972958349745e-01 8.805326833796633945e-02
7.708940000000000509e+03 8.164958874088219520e-01 9.071360714221897437e-02
7.709140000000000327e+03 8.434428054135629793e-01 9.058615595363538053e-02
7.709340000000000146e+03 8.700544054667890270e-01 8.969199560861386422e-02
7.709539999999999964e+03 8.964717072425120170e-01 8.756498225505777999e-02
7.709740000000000691e+03 9.218234652578439769e-01 8.484767547781170427e-02
7.709940000000000509e+03 9.466312908624680000e-01 8.282624500356179642e-02
7.710140000000000327e+03 9.707857441761800210e-01 7.993706172543627031e-02
7.710340000000000146e+03 9.938822901862409687e-01 7.638697050669164545e-02
7.710539999999999964e+03 1.015934004394589918e+00 7.217254261046322783e-02
7.710740000000000691e+03 1.036534320928349961e+00 6.704772655200237630e-02
7.710940000000000509e+03 1.055550577603370010e+00 6.150540828498739232e-02
7.711140000000000327e+03 1.072868147684530093e+00 5.587252152846224756e-02
7.711340000000000146e+03 1.088548013678519943e+00 5.017164715666486141e-02
7.711539999999999964e+03 1.102488923629640016e+00 4.395035808549884598e-02
7.711740000000000691e+03 1.114483884924160062e+00 3.770308933970489135e-02
7.711940000000000509e+03 1.124724502267540061e+00 3.190785491770682658e-02
7.712140000000000327e+03 1.133286913440610055e+00 2.631455277551728728e-02
7.712340000000000146e+03 1.140214586293889942e+00 2.131665283232743457e-02
7.712539999999999964e+03 1.145816713066450054e+00 1.691738444630784544e-02
7.712740000000000691e+03 1.150138674375940084e+00 1.318253726698795543e-02
7.712940000000000509e+03 1.153528630042850001e+00 1.056540276284257361e-02
7.713140000000000327e+03 1.156300447785080010e+00 8.762200382820054673e-03
7.713340000000000146e+03 1.158622356484819926e+00 7.815811736819503613e-03
7.713539999999999964e+03 1.160833622880000027e+00 8.340925689125644471e-03
7.713740000000000691e+03 1.163466559543330003e+00 1.009294355161724326e-02
7.713940000000000509e+03 1.166715556026489908e+00 1.342700794464316005e-02
7.714140000000000327e+03 1.171323277884620095e+00 1.754354588068260043e-02
7.714340000000000146e+03 1.177010523067169911e+00 2.175751366050687752e-02
7.714539999999999964e+03 1.184114201872149996e+00 2.671259692046490386e-02
7.714740000000000691e+03 1.192736370891630093e+00 3.164903231799894023e-02
7.714940000000000509e+03 1.202763928299140028e+00 3.596321520367314062e-02
7.715140000000000327e+03 1.213941412239359918e+00 3.984433481921541287e-02
7.715340000000000146e+03 1.226267778743689973e+00 4.298900099954993531e-02
7.715539999999999964e+03 1.239307866246259993e+00 4.569729196028393670e-02
7.715740000000000691e+03 1.253238368802640057e+00 4.750235068717357373e-02
7.715940000000000509e+03 1.267347602797129991e+00 4.823291041315196093e-02
7.716140000000000327e+03 1.281710820010609986e+00 4.843691595613159456e-02
7.716340000000000146e+03 1.295940887641900074e+00 4.818232406470789736e-02
7.716539999999999964e+03 1.310153308638319913e+00 4.868449025388721374e-02
7.716740000000000691e+03 1.324680812143379960e+00 4.794595147446937405e-02
7.716940000000000509e+03 1.338455792444160020e+00 4.749879977092340277e-02
7.717140000000000327e+03 1.352718445466410069e+00 4.764473271912334634e-02
7.717340000000000146e+03 1.366579862677689938e+00 4.725512849876596644e-02
7.717539999999999964e+03 1.380611750916930003e+00 4.748835071331380248e-02
7.717740000000000691e+03 1.394611306964870012e+00 4.860845991579406528e-02
7.717940000000000509e+03 1.409306642219189998e+00 4.966654997320928133e-02
7.718140000000000327e+03 1.423932910991789980e+00 5.049274747380384787e-02
7.718340000000000146e+03 1.439117607698030099e+00 5.109713453894949159e-02
7.718539999999999964e+03 1.454101858347250031e+00 5.142790581691875779e-02
7.718740000000000691e+03 1.469482472752080104e+00 5.279056143341135515e-02
7.718940000000000509e+03 1.485273832029049945e+00 5.444245205022302247e-02
7.719140000000000327e+03 1.501632870587930046e+00 5.533062632152233040e-02
7.719340000000000146e+03 1.517950300508599915e+00 5.607429614940200036e-02
7.719539999999999964e+03 1.534749818912140018e+00 5.694644593035150248e-02
7.719740000000000691e+03 1.551583828080330019e+00 5.806276308904417816e-02
7.719940000000000509e+03 1.569044547449969906e+00 5.952707235159034049e-02
7.720140000000000327e+03 1.586745875275259898e+00 5.977245182558761638e-02
7.720340000000000146e+03 1.604351934295020099e+00 6.109571182611217566e-02
7.720539999999999964e+03 1.622837036501930008e+00 6.273416862878512801e-02
7.720740000000000691e+03 1.641413562751810051e+00 6.333455751213071250e-02
7.720940000000000509e+03 1.660254278689649921e+00 6.458765232728304329e-02
7.721140000000000327e+03 1.679573020084969892e+00 6.670313464698555961e-02
7.721340000000000146e+03 1.699666748164259999e+00 6.816823231938061445e-02
7.721539999999999964e+03 1.719853275196369990e+00 6.902713611181407471e-02
7.721740000000000691e+03 1.740455736849289892e+00 7.027386541533553466e-02
7.721940000000000509e+03 1.761380708698389919e+00 7.158729763815141478e-02
7.722140000000000327e+03 1.782761123684519999e+00 7.188776008578411092e-02
7.722340000000000146e+03 1.803864061140530106e+00 7.124601385793917496e-02
7.722539999999999964e+03 1.824864366206699895e+00 7.115525500638493483e-02
7.722740000000000691e+03 1.845913546681769990e+00 6.894096986578644726e-02
7.722940000000000509e+03 1.865602318136919902e+00 6.625828042529482986e-02
7.723140000000000327e+03 1.885062526485129952e+00 6.502183203313195714e-02
7.723340000000000146e+03 1.904018942565230077e+00 6.266183611784446883e-02
7.723539999999999964e+03 1.922081311986550078e+00 5.864294040965271904e-02
7.723740000000000691e+03 1.938657313411080052e+00 5.290159794250320208e-02
7.723940000000000509e+03 1.953319053220619939e+00 4.790822619432171664e-02
7.724140000000000327e+03 1.966937452320079993e+00 4.286493236980755406e-02
7.724340000000000146e+03 1.978612020676489891e+00 3.743383334198232409e-02
7.724539999999999964e+03 1.989013549107780054e+00 3.230162296661293758e-02
7.724740000000000691e+03 1.997648280235190033e+00 2.720410703109723757e-02
7.724940000000000509e+03 2.005030521150359846e+00 2.260593067544255236e-02
7.725140000000000327e+03 2.010941726418640219e+00 1.857622904107927159e-02
7.725340000000000146e+03 2.015937152266980004e+00 1.515331309488267449e-02
7.725539999999999964e+03 2.019820945063029782e+00 1.223539028034871870e-02
7.725740000000000691e+03 2.023088068726880184e+00 9.330307856081670320e-03
7.725940000000000509e+03 2.025251164774190205e+00 6.217143889305324321e-03
7.726140000000000327e+03 2.026674343814919954e+00 3.055933112335322294e-03
7.726340000000000146e+03 2.026965036841729795e+00 2.248101785092373236e-03
7.726539999999999964e+03 2.027909732818879984e+00 1.271895582723655670e-03
7.726740000000000691e+03 2.027622213391380157e+00 -1.691562442294093898e-03
7.726940000000000509e+03 2.026811636421339990e+00 -3.205944425983404868e-03
7.727140000000000327e+03 2.025627139980759939e+00 -3.823276040134806521e-03
7.727340000000000146e+03 2.024450914004519930e+00 -4.020764440830264241e-03
7.727539999999999964e+03 2.023149444067370073e+00 -4.502890063763883774e-03
7.727740000000000691e+03 2.021687652358139964e+00 -5.603460012806443617e-03
7.727940000000000509e+03 2.019734308616219831e+00 -5.934246702103253800e-03
7.728140000000000327e+03 2.018076590080259969e+00 -4.993161525134282713e-03
7.728340000000000146e+03 2.016680656410689831e+00 -5.021536179153200143e-03
7.728539999999999964e+03 2.015006131406690049e+00 -4.762922118507925857e-03
7.728740000000000691e+03 2.013763376307749819e+00 -3.220843870649406013e-03
7.728940000000000509e+03 2.013002232970729999e+00 -1.799705076808959985e-03
7.729140000000000327e+03 2.012601226416220079e+00 -1.407577728981427440e-03
7.729340000000000146e+03 2.012072342324879859e+00 3.181670169350010952e-04
7.729539999999999964e+03 2.012693504142820000e+00 2.835074915349973697e-03
7.729740000000000691e+03 2.013655398833349874e+00 4.554879354465472124e-03
7.729940000000000509e+03 2.015295210546430127e+00 7.470006130188133232e-03
7.730140000000000327e+03 2.017983751311859919e+00 1.067591727886063081e-02
7.730340000000000146e+03 2.021522442328389957e+00 1.158792666926838043e-02
7.730539999999999964e+03 2.024751171413360140e+00 1.342682254545452154e-02
7.730740000000000691e+03 2.029379050856709998e+00 1.631010339542266971e-02
7.730940000000000509e+03 2.034315563494669910e+00 1.884867329188348942e-02
