# energy mu dmude
2.303020823300000120e+04 -1.739683385971469987e+00 -3.780752658071472088e-05
2.303520823300000120e+04 -1.739758783065749936e+00 -4.004121564979501658e-05
2.304020823300000120e+04 -1.739878440279970073e+00 -3.982358682800491220e-05
2.304520823300000120e+04 -1.739949525100940031e+00 -3.665673074313439479e-05
2.305020823300000120e+04 -1.740006431670009901e+00 -3.549688417387764793e-05
2.305520823300000120e+04 -1.740054534353949967e+00 -3.700269728065146076e-05
2.306020823300000120e+04 -1.740141278320550100e+00 -3.346066221772443777e-05
2.306520823300000120e+04 -1.740119196259940049e+00 -2.898148495994539339e-05
2.307020823300000120e+04 -1.740117186189370058e+00 -2.773501680931401956e-05
2.307520823300000120e+04 -1.740070405601729986e+00 -2.455228878966948325e-05
2.308020823300000120e+04 -1.740005330386670046e+00 -2.045736537407731121e-05
2.308520823300000120e+04 -1.739877409677949904e+00 -1.667746874469717091e-05
2.309020823300000120e+04 -1.739737436537079907e+00 -1.803132360355060002e-05
2.309520823300000120e+04 -1.739636342202389940e+00 -1.117767701600438784e-05
2.310020823300000120e+04 -1.739360565370579925e+00 -9.607687711659990637e-07
2.310520823300000120e+04 -1.739057024961099929e+00 -1.462692194381231366e-06
2.311020823300000120e+04 -1.738791193645530031e+00 4.297024111491875007e-06
2.311520823300000120e+04 -1.738373525563559951e+00 1.544809838357556324e-05
2.312020823300000120e+04 -1.737886737852770036e+00 2.511733144309332512e-05
2.312520823300000120e+04 -1.737277475774630098e+00 3.650406615305003971e-05
2.313020823300000120e+04 -1.736565062102300105e+00 5.189987934165514059e-05
2.313520823300000120e+04 -1.735650734942479900e+00 6.589207085901293756e-05
2.314020823300000120e+04 -1.734661068682330054e+00 8.142689136098602812e-05
2.314520823300000120e+04 -1.733438922037610075e+00 1.070699547523855778e-04
2.315020823300000120e+04 -1.731941143400919980e+00 1.398772350231291617e-04
2.315520823300000120e+04 -1.730068926798030038e+00 1.779510276867243368e-04
2.316020823300000120e+04 -1.727816723271500043e+00 2.265327470381672662e-04
2.316520823300000120e+04 -1.724981869229420095e+00 2.954888493257413020e-04
2.317020823300000120e+04 -1.721363313778569992e+00 3.880775739090306688e-04
2.317520823300000120e+04 -1.716693831939849924e+00 5.245439662389776454e-04
2.318020823300000120e+04 -1.710371221132340080e+00 7.292917452110889848e-04
2.318520823300000120e+04 -1.701644701373580038e+00 9.813699953145108793e-04
2.318900000000000000e+04 -1.692748992207550041e+00 1.200333885010933504e-03
2.319000000000000000e+04 -1.689961060432509932e+00 1.511651491795320754e-03
2.319100000000000000e+04 -1.686638704467859906e+00 1.724256808892109943e-03
2.319200000000000000e+04 -1.683008225987020046e+00 1.901298289828457291e-03
2.319300000000000000e+04 -1.678984261433319913e+00 2.102752884709152559e-03
2.319400000000000000e+04 -1.674555426130539981e+00 2.334683679707277165e-03
2.319500000000000000e+04 -1.669612328744380036e+00 2.626476348724067836e-03
2.319600000000000000e+04 -1.664027130301610091e+00 2.823514184188182126e-03
2.319620000000000073e+04 -1.662826839222609987e+00 3.280705016381369864e-03
2.319640000000000146e+04 -1.661402934519419894e+00 2.968274494458199124e-03
2.319659999999999854e+04 -1.660450273472120042e+00 2.914401261303684043e-03
2.319679999999999927e+04 -1.659069068279690029e+00 3.805957795456092491e-03
2.319700000000000000e+04 -1.657409766372069937e+00 3.844981156225062320e-03
2.319720000000000073e+04 -1.655997631563659978e+00 3.953265251362500336e-03
2.319740000000000146e+04 -1.654252504514039934e+00 3.239030371025937785e-03
2.319759999999999854e+04 -1.653406466785269924e+00 3.366983108025001746e-03
2.319779999999999927e+04 -1.651559925379199933e+00 4.743045438322766524e-03
2.319800000000000000e+04 -1.649623231217909991e+00 4.035978677428268824e-03
2.319820000000000073e+04 -1.648337105495049970e+00 4.067320859690824741e-03
2.319840000000000146e+04 -1.646375569760859969e+00 4.968358412133931992e-03
2.319859999999999854e+04 -1.644375288595470108e+00 4.100778409565283833e-03
2.319879999999999927e+04 -1.643101390106820103e+00 4.546468694992560587e-03
2.319900000000000000e+04 -1.640747858244830049e+00 5.188706068340005924e-03
2.319920000000000073e+04 -1.638964927347539957e+00 4.688885965086827569e-03
2.319940000000000146e+04 -1.637007549059920075e+00 5.377948141213613302e-03
2.319959999999999854e+04 -1.634678472775040081e+00 5.616493884197153175e-03
2.319979999999999927e+04 -1.632532024963970096e+00 4.987343055760687718e-03
2.320000000000000000e+04 -1.630701608792719970e+00 6.045788126411677857e-03
2.320020000000000073e+04 -1.627716245549309937e+00 6.330448362387657013e-03
2.320040000000000146e+04 -1.625660209861699901e+00 5.940427562829119976e-03
2.320059999999999854e+04 -1.622983974108040073e+00 6.453107623689956045e-03
2.320079999999999927e+04 -1.620521592142450062e+00 7.008952729921446786e-03
2.320100000000000000e+04 -1.617404797827380003e+00 7.938108197716025119e-03
2.320120000000000073e+04 -1.614205974375509944e+00 8.456444701293631266e-03
2.320140000000000146e+04 -1.610678350529409997e+00 7.943185352987930728e-03
2.320159999999999854e+04 -1.607886332494359971e+00 7.020292304685510354e-03
2.320179999999999927e+04 -1.605090186588949974e+00 7.802994458183606236e-03
2.320200000000000000e+04 -1.601677804839469976e+00 8.860522217181174970e-03
2.320220000000000073e+04 -1.598043470555889911e+00 9.548800682622751376e-03
2.320240000000000146e+04 -1.594085564581849912e+00 1.026995230762263803e-02
2.320259999999999854e+04 -1.589879651060039922e+00 1.068637361661416152e-02
2.320279999999999927e+04 -1.585591692755319970e+00 1.032711507448221336e-02
2.320300000000000000e+04 -1.581670524794209998e+00 1.149780372107494890e-02
2.320320000000000073e+04 -1.576454687661080101e+00 1.229250252484527690e-02
2.320340000000000146e+04 -1.571903647532739923e+00 1.176905756114073401e-02
2.320359999999999854e+04 -1.567102688856979897e+00 1.273117173429162176e-02
2.320379999999999927e+04 -1.561789084425680096e+00 1.417914761779528326e-02
2.320400000000000000e+04 -1.555840471187480034e+00 1.498252097184980640e-02
2.320420000000000073e+04 -1.549890119207030015e+00 1.418087279941592817e-02
2.320440000000000146e+04 -1.544576886152279949e+00 1.569942747793666091e-02
2.320459999999999854e+04 -1.537422939398829902e+00 1.701640334195808624e-02
2.320479999999999927e+04 -1.531065881390879957e+00 1.686064881166217388e-02
2.320500000000000000e+04 -1.524035384481559952e+00 1.915817423558598478e-02
2.320520000000000073e+04 -1.515857325471509975e+00 1.930571613943744130e-02
2.320540000000000146e+04 -1.508709887982569997e+00 1.837941982880407499e-02
2.320559999999999854e+04 -1.501266004312930002e+00 2.113626324104876664e-02
2.320579999999999927e+04 -1.491933513912709897e+00 2.197484331635575494e-02
2.320600000000000000e+04 -1.483824978116949911e+00 2.183400875179710224e-02
2.320620000000000073e+04 -1.474604112110750043e+00 2.314361127513081540e-02
2.320640000000000146e+04 -1.465457595414970005e+00 2.373746363712610219e-02
2.320659999999999854e+04 -1.455766046588619966e+00 2.398460180417514090e-02
2.320679999999999927e+04 -1.446423650080080003e+00 2.465681828342386819e-02
2.320700000000000000e+04 -1.436199307635869893e+00 2.864453494745949902e-02
2.320720000000000073e+04 -1.423696277531860011e+00 2.728266602155836329e-02
2.320740000000000146e+04 -1.414551341936850060e+00 2.539164514830278413e-02
2.320759999999999854e+04 -1.403547120450910013e+00 2.723707929055053933e-02
2.320779999999999927e+04 -1.392939507930839982e+00 2.765359717673395931e-02
2.320800000000000000e+04 -1.381605157567679987e+00 3.005954742389384260e-02
2.320820000000000073e+04 -1.369090607363500078e+00 3.143708550285533032e-02
2.320840000000000146e+04 -1.356664430900790030e+00 2.966965919775169797e-02
2.320859999999999854e+04 -1.345550729209409990e+00 2.854357355016051354e-02
2.320879999999999927e+04 -1.334017079580720022e+00 3.100373361098109765e-02
2.320900000000000000e+04 -1.320953473923140109e+00 3.408956787695938823e-02
2.320920000000000073e+04 -1.306974015759690078e+00 3.401061046228989054e-02
2.320940000000000146e+04 -1.293972991142450013e+00 3.173573819027593335e-02
2.320959999999999854e+04 -1.281796579267139968e+00 3.165665237634185392e-02
2.320979999999999927e+04 -1.268858237458510008e+00 3.449068506212486090e-02
2.321000000000000000e+04 -1.254435593046409947e+00 3.308384753298736908e-02
2.321020000000000073e+04 -1.242612299856469926e+00 3.251085178753967270e-02
2.321040000000000146e+04 -1.228643807470630067e+00 3.520763933406763357e-02
2.321059999999999854e+04 -1.214683061187479929e+00 3.462636508828311616e-02
2.321079999999999927e+04 -1.201175282303670100e+00 3.309818892411308527e-02
2.321100000000000000e+04 -1.188425756708999970e+00 3.552426898381557535e-02
2.321120000000000073e+04 -1.172995085406290050e+00 3.705219920671752598e-02
2.321140000000000146e+04 -1.159034534054049992e+00 3.495158887957030419e-02
2.321159999999999854e+04 -1.145268790360630007e+00 3.478462259328946038e-02
2.321179999999999927e+04 -1.131440575204309962e+00 3.480956349881249301e-02
2.321200000000000000e+04 -1.117655063540510030e+00 3.468709161421427989e-02
2.321220000000000073e+04 -1.103923918659130088e+00 3.634348777934091890e-02
2.321240000000000146e+04 -1.088825560118789948e+00 3.803131577359209620e-02
2.321259999999999854e+04 -1.073756655734829923e+00 3.765515440171224998e-02
2.321279999999999927e+04 -1.058956439808280026e+00 3.692401747667260065e-02
2.321300000000000000e+04 -1.044467028934459973e+00 3.812413089231936336e-02
2.321320000000000073e+04 -1.028715612333580109e+00 3.707257112757449818e-02
2.321340000000000146e+04 -1.015059659651530000e+00 3.363319891795522876e-02
2.321359999999999854e+04 -1.002034263044009998e+00 3.567676831032774026e-02
2.321379999999999927e+04 -9.867585929596679462e-01 3.721483834951514608e-02
2.321400000000000000e+04 -9.725141338538240143e-01 3.702945056727750817e-02
2.321420000000000073e+04 -9.573854007015899503e-01 4.025107012814844315e-02
2.321440000000000146e+04 -9.405875106793160079e-01 4.273453355023179578e-02
2.321459999999999854e+04 -9.234904034962689856e-01 3.786885030316253925e-02
2.321479999999999927e+04 -9.105490166388660045e-01 3.538465528345502431e-02
2.321500000000000000e+04 -8.954208633453240029e-01 3.899456196296888222e-02
2.321520000000000073e+04 -8.796182921839600377e-01 3.944575011619654709e-02
2.321540000000000146e+04 -8.641325306260619898e-01 4.259000121490742752e-02
2.321559999999999854e+04 -8.458378501973620178e-01 4.430882170540624554e-02
2.321579999999999927e+04 -8.289897647221710075e-01 4.032181440289148155e-02
2.321600000000000000e+04 -8.138551556541290255e-01 4.041049596671712069e-02
2.321620000000000073e+04 -7.969367818526750247e-01 4.400721600812873557e-02
2.321640000000000146e+04 -7.789514401087359596e-01 4.411957313985732237e-02
2.321659999999999854e+04 -7.619440129080859991e-01 4.504117379258086584e-02
2.321679999999999927e+04 -7.432282175662650037e-01 4.464801161365725135e-02
2.321700000000000000e+04 -7.265324076881509718e-01 4.220620674579145248e-02
2.321720000000000073e+04 -7.097519681273869452e-01 4.327028043893811626e-02
2.321740000000000146e+04 -6.922127816139800327e-01 4.562164662778699087e-02
2.321759999999999854e+04 -6.735686672747539516e-01 4.422916697953182402e-02
2.321779999999999927e+04 -6.571331494339329726e-01 4.844098954632227588e-02
2.321800000000000000e+04 -6.351507768819090183e-01 4.661158608342209908e-02
2.321820000000000073e+04 -6.201652301728529659e-01 4.639634360046798051e-02
2.321840000000000146e+04 -5.983534571593900342e-01 5.005185368312432825e-02
2.321859999999999854e+04 -5.804705812397149556e-01 4.656712649802956239e-02
2.321879999999999927e+04 -5.614207762245030375e-01 4.885883567900167757e-02
2.321900000000000000e+04 -5.417215092118770059e-01 4.459690763294622828e-02
2.321920000000000073e+04 -5.260496756271140217e-01 4.569142043103883305e-02
2.321940000000000146e+04 -5.054829061784390509e-01 4.900554927136382966e-02
2.321959999999999854e+04 -4.871843195333330212e-01 4.728636765829122290e-02
2.321979999999999927e+04 -4.679801602249289982e-01 4.939001018341927091e-02
2.322000000000000000e+04 -4.480142426736170025e-01 4.987992442398259813e-02
2.322020000000000073e+04 -4.284217811015170185e-01 4.952415978935528068e-02
2.322040000000000146e+04 -4.087378398667330104e-01 5.025250150822530015e-02
2.322059999999999854e+04 -3.885681002435220077e-01 4.767517413255881881e-02
2.322079999999999927e+04 -3.709269288884159965e-01 4.425816005593688485e-02
2.322100000000000000e+04 -3.534654883735129927e-01 4.182642314342448903e-02
2.322120000000000073e+04 -3.377516930153899866e-01 4.444879664499867822e-02
2.322140000000000146e+04 -3.182117794074270090e-01 5.122070508523259014e-02
2.322159999999999854e+04 -2.971306214397160250e-01 4.760334854122636600e-02
2.322179999999999927e+04 -2.804577968410569833e-01 4.263263164476593925e-02
2.322200000000000000e+04 -2.633163909015789894e-01 4.332723669006363632e-02
2.322220000000000073e+04 -2.460930276797649863e-01 4.169672165896461807e-02
2.322240000000000146e+04 -2.302439554288079893e-01 3.972176923652785685e-02
2.322259999999999854e+04 -2.145859243263109895e-01 4.314206434654443978e-02
2.322279999999999927e+04 -1.960259524448620116e-01 4.141041585383787443e-02
2.322300000000000000e+04 -1.817404126353679983e-01 3.792525211834010812e-02
2.322320000000000073e+04 -1.659427547586909968e-01 4.203760316198984492e-02
2.322340000000000146e+04 -1.483977971018489994e-01 4.047860772983853661e-02
2.322359999999999854e+04 -1.338357870292510021e-01 3.555852153987212882e-02
2.322379999999999927e+04 -1.201904518919130055e-01 3.108087788680064315e-02
2.322400000000000000e+04 -1.091773877825659989e-01 3.637067962746883681e-02
2.322420000000000073e+04 -9.133939642024629935e-02 4.015822801946751508e-02
2.322440000000000146e+04 -7.732435055021309733e-02 3.236219010907489396e-02
2.322459999999999854e+04 -6.566543894907679590e-02 3.178101646979010486e-02
2.322479999999999927e+04 -5.211102684113470135e-02 3.073578911112571574e-02
2.322500000000000000e+04 -4.128055441512269719e-02 2.966494251599593318e-02
2.322520000000000073e+04 -2.857488709255799966e-02 3.209828731326976742e-02
2.322540000000000146e+04 -1.581576427245250105e-02 3.207915316036027975e-02
2.322559999999999854e+04 -3.125262532732360141e-03 2.842606990701015274e-02
2.322579999999999927e+04 6.738454562685180192e-03 2.419797328714247062e-02
2.322600000000000000e+04 1.607779940067479915e-02 2.406502615858773647e-02
2.322620000000000073e+04 2.583614362325990094e-02 2.538213491221389187e-02
2.322640000000000146e+04 3.621941874173890269e-02 2.496839111810614242e-02
2.322659999999999854e+04 4.564983281118979719e-02 2.472761004806455290e-02
2.322679999999999927e+04 5.584226670316359831e-02 2.216269859399281131e-02
2.322700000000000000e+04 6.323975165717700408e-02 1.730886896323089591e-02
2.322720000000000073e+04 6.958507746947399653e-02 1.727815593927943191e-02
2.322740000000000146e+04 7.695821951663189830e-02 1.785686823107398430e-02
2.322759999999999854e+04 8.376222824578180570e-02 1.609675216221503197e-02
2.322779999999999927e+04 8.974031581745879615e-02 1.403597335319473755e-02
2.322800000000000000e+04 9.491096709298099676e-02 1.312713426204812836e-02
2.322820000000000073e+04 1.001687157824450031e-01 1.166747542775960905e-02
2.322840000000000146e+04 1.041824526785719990e-01 9.532562648966852112e-03
2.322859999999999854e+04 1.077480858992559964e-01 7.684416467127775166e-03
2.322879999999999927e+04 1.102969963285759941e-01 6.354674879042651429e-03
2.322900000000000000e+04 1.128086865812760048e-01 4.557951956095168504e-03
2.322920000000000073e+04 1.139335282237550068e-01 3.814656233921132067e-03
2.322940000000000146e+04 1.158560879968349999e-01 2.420886560355216786e-03
2.322959999999999854e+04 1.158762385025489949e-01 -7.832334810790594697e-05
2.322979999999999927e+04 1.158179437003809958e-01 2.104432671482641402e-04
2.323000000000000000e+04 1.160669684071280044e-01 -1.519780272998838468e-03
2.323020000000000073e+04 1.146373117180980034e-01 -2.142647614630764814e-03
2.323040000000000146e+04 1.143926565545480001e-01 -2.538652084096957445e-03
2.323059999999999854e+04 1.126491297650250023e-01 -5.068199388300232908e-03
2.323079999999999927e+04 1.103995748394060034e-01 -5.103288323252993912e-03
2.323100000000000000e+04 1.086282368295460043e-01 -5.133597617235006322e-03
2.323120000000000073e+04 1.063546589903440059e-01 -5.885568968637360301e-03
2.323140000000000146e+04 1.039873142637809944e-01 -6.890637819185051194e-03
2.323159999999999854e+04 1.009171265743220025e-01 -7.147108086503905708e-03
2.323179999999999927e+04 9.834650548401170644e-02 -6.883599611050221501e-03
2.323200000000000000e+04 9.548517258795280460e-02 -7.660081326044009507e-03
2.323220000000000073e+04 9.229911805503859812e-02 -7.689956829209145320e-03
2.323240000000000146e+04 8.941410606466550226e-02 -7.090493008864552985e-03
2.323259999999999854e+04 8.670318195090580271e-02 -7.575943802564918950e-03
2.323279999999999927e+04 8.343340539053710481e-02 -7.764332384077929708e-03
2.323300000000000000e+04 8.057316593416009864e-02 -7.328784980519237498e-03
2.323320000000000073e+04 7.764860090010759774e-02 -8.194460415754554680e-03
2.323340000000000146e+04 7.410223374362250037e-02 -6.988770143118551784e-03
2.323359999999999854e+04 7.213328955795980657e-02 -5.903491888293607368e-03
2.323379999999999927e+04 6.944710560945870081e-02 -7.028383430092399221e-03
2.323400000000000000e+04 6.658658102880379848e-02 -5.693474303668892567e-03
2.323420000000000073e+04 6.495843579953419766e-02 -5.393905235250101571e-03
2.323440000000000146e+04 6.233534736130799669e-02 -6.265056304558862255e-03
2.323459999999999854e+04 6.001673448647049797e-02 -5.542757417008041532e-03
2.323479999999999927e+04 5.796613459802849727e-02 -4.861832382025775556e-03
2.323500000000000000e+04 5.618721767521610289e-02 -4.778511030618205931e-03
2.323520000000000073e+04 5.420265764985009865e-02 -4.696057521984943993e-03
2.323540000000000146e+04 5.248909274459710034e-02 -3.973834041988735279e-03
2.323559999999999854e+04 5.107696150160000170e-02 -3.311812487323293613e-03
2.323579999999999927e+04 4.988810979511919957e-02 -2.241379440146191136e-03
2.323600000000000000e+04 4.932439556254480245e-02 -2.314033275928236918e-03
2.323620000000000073e+04 4.807795898392829698e-02 -2.832715690347340030e-03
2.323640000000000146e+04 4.710314105404839885e-02 -1.343932023607059172e-03
2.323659999999999854e+04 4.703670297330930089e-02 -1.358330734136577525e-03
2.323679999999999927e+04 4.605047273607049824e-02 -1.473508863067320629e-03
2.323700000000000000e+04 4.589274535509509784e-02 -9.338080261491634023e-04
2.323720000000000073e+04 4.533427785537740007e-02 1.354994318006963526e-04
2.323740000000000146e+04 4.602407535147350071e-02 1.694860912718288608e-03
2.323759999999999854e+04 4.670154578297110171e-02 1.303525838057991749e-03
2.323779999999999927e+04 4.708117410501330008e-02 1.824378562660957629e-04
2.323800000000000000e+04 4.687007881401390047e-02 1.109245805431108550e-03
2.323820000000000073e+04 4.798428799710340031e-02 1.830504918488297947e-03
2.323840000000000146e+04 4.834485713861699785e-02 1.943106554048779945e-03
2.323859999999999854e+04 4.954831351306510090e-02 2.126984977201490032e-03
2.323879999999999927e+04 5.005462328026930030e-02 2.702699432572001903e-03
2.323900000000000000e+04 5.171438650959370165e-02 4.407489966760999925e-03
2.323920000000000073e+04 5.357190015850599868e-02 4.645004518192862204e-03
2.323940000000000146e+04 5.541991559677990342e-02 4.986141446152456483e-03
2.323959999999999854e+04 5.754781175424480283e-02 4.217391938390579673e-03
2.323979999999999927e+04 5.878652223797559834e-02 4.049294167083307416e-03
2.324000000000000000e+04 6.078118539320959829e-02 5.505901605466444020e-03
2.324020000000000073e+04 6.317439174338089491e-02 6.085963459333052286e-03
2.324040000000000146e+04 6.562880746812869981e-02 6.117463745215288851e-03
2.324059999999999854e+04 6.804698070286979705e-02 7.553135346005518391e-03
