# energy mu dmude
2.191984049799999775e+04 4.582002756666059828e-01 -2.448527174826388932e-05
2.192484049799999775e+04 4.580825836733110057e-01 -2.669002108362027945e-05
2.192984049799999775e+04 4.579392095774060256e-01 -2.698819893902498903e-05
2.193484049799999775e+04 4.578180442485459967e-01 -2.837151639512465576e-05
2.193984049799999775e+04 4.576585565290740010e-01 -2.636820471446857795e-05
2.194484049799999775e+04 4.575607268489960133e-01 -2.185246545241741617e-05
2.194984049799999775e+04 4.574538408821259838e-01 -2.401769684568330987e-05
2.195484049799999775e+04 4.573307894256199990e-01 -2.423451052916994974e-05
2.195984049799999775e+04 4.572213778966929820e-01 -2.109833155389545325e-05
2.196484049799999775e+04 4.571348583347449868e-01 -1.442646470419098448e-05
2.196984049799999775e+04 4.571031642888380153e-01 -8.739275013351703548e-06
2.197484049799999775e+04 4.570828921623060204e-01 -1.216069297149748310e-05
2.197984049799999775e+04 4.570113436052020139e-01 -1.324011326725645324e-05
2.198484049799999775e+04 4.569784978121990138e-01 -7.836465273417935352e-06
2.198984049799999775e+04 4.569698938447679937e-01 -9.329911889251587268e-07
2.199484049799999775e+04 4.570174634200609987e-01 2.822850821834179979e-06
2.199984049799999775e+04 4.570526095145350243e-01 6.615494161550238016e-07
2.200484049799999775e+04 4.570750030920029960e-01 6.669443286714605003e-06
2.200984049799999775e+04 4.571801323561640040e-01 1.676152339882458394e-05
2.201484049799999775e+04 4.573200838949070257e-01 2.604997169169344422e-05
2.201984049799999775e+04 4.575334099859449943e-01 3.066673275950951717e-05
2.202484049799999775e+04 4.577271400334589901e-01 3.687549754645920089e-05
2.202984049799999775e+04 4.580127891463400269e-01 4.597558825377729287e-05
2.203484049799999775e+04 4.583125219305629883e-01 5.973219991564761115e-05
2.203984049799999775e+04 4.587584154334070075e-01 7.752047292198435940e-05
2.204484049799999775e+04 4.592653555610120009e-01 9.564101239087376941e-05
2.204984049799999775e+04 4.599223268251799723e-01 1.187445832352207665e-04
2.205484049799999775e+04 4.606983897358449820e-01 1.426491139018906955e-04
2.205984049799999775e+04 4.616338137926179752e-01 1.769488115142137520e-04
2.206484049799999775e+04 4.628094179751380266e-01 2.271992083345084220e-04
2.206984049799999775e+04 4.643301856020999874e-01 2.885037528173198880e-04
2.207484049799999775e+04 4.662198979948439792e-01 3.695855147969498260e-04
2.207984049799999775e+04 4.686851494674579843e-01 4.955804104975623965e-04
2.208484049799999775e+04 4.720425179732219978e-01 6.832454259163174819e-04
2.208984049799999775e+04 4.766937921854699778e-01 9.875152667434597929e-04
2.209559999999999854e+04 4.844729071487189898e-01 1.202279010704559959e-03
2.209659999999999854e+04 4.861940182637979890e-01 1.592735980108665739e-03
2.209759999999999854e+04 4.881934824347580193e-01 1.823930697253912242e-03
2.209859999999999854e+04 4.904532095596830232e-01 2.017040682592414341e-03
2.209959999999999854e+04 4.929025634644950138e-01 2.283350272091711972e-03
2.210059999999999854e+04 4.957827139721470155e-01 2.577090731281834329e-03
2.210159999999999854e+04 4.989163971558149835e-01 2.886573635111123332e-03
2.210259999999999854e+04 5.025175522298099828e-01 3.141415818307648905e-03
2.210279999999999927e+04 5.033135247202560336e-01 3.376657697167944391e-03
2.210300000000000000e+04 5.040928703603330119e-01 3.516687820067023081e-03
2.210319999999999709e+04 5.049540886894110514e-01 3.647189039991451456e-03
2.210339999999999782e+04 5.057942402572559448e-01 3.818991570140197953e-03
2.210359999999999854e+04 5.067355085065320397e-01 3.614905606033698773e-03
2.210379999999999927e+04 5.074805679641329892e-01 3.791505580143705780e-03
2.210400000000000000e+04 5.085041214615919625e-01 4.181717923569327512e-03
2.210419999999999709e+04 5.094309970246679864e-01 3.914457219591171294e-03
2.210439999999999782e+04 5.103300226819219576e-01 4.199547143423966802e-03
2.210459999999999854e+04 5.113897334577900411e-01 4.554128887787541567e-03
2.210479999999999927e+04 5.124539734475099806e-01 4.704479764924714841e-03
2.210500000000000000e+04 5.135837389292300381e-01 4.966875734236643643e-03
2.210519999999999709e+04 5.147702400776059672e-01 5.200096897406983332e-03
2.210539999999999782e+04 5.160086729664959959e-01 5.486538180658844660e-03
2.210559999999999854e+04 5.173286389820379583e-01 5.472327855744116114e-03
2.210579999999999927e+04 5.185604506915180156e-01 5.389819743442270973e-03
2.210600000000000000e+04 5.198419727574949967e-01 5.412918535382476269e-03
2.210619999999999709e+04 5.210845471515850313e-01 5.853163241140630670e-03
2.210639999999999782e+04 5.225711974745550492e-01 6.245791805078121893e-03
2.210659999999999854e+04 5.239967137914539608e-01 6.343330745066736928e-03
2.210679999999999927e+04 5.255288115496510315e-01 6.513206321823382730e-03
2.210700000000000000e+04 5.270334799392729641e-01 7.147177643848702869e-03
2.210719999999999709e+04 5.288609712151149944e-01 7.451703464244308420e-03
2.210739999999999782e+04 5.305075308073570195e-01 7.657687204527513676e-03
2.210759999999999854e+04 5.324309984460600109e-01 8.086693670245477875e-03
2.210779999999999927e+04 5.342774499334259630e-01 8.240950561264991439e-03
2.210800000000000000e+04 5.362727922517569468e-01 8.637684282881821773e-03
2.210819999999999709e+04 5.383040984249960470e-01 9.020962440256062934e-03
2.210839999999999782e+04 5.404780259241079854e-01 9.744996018031809246e-03
2.210859999999999854e+04 5.428466893531850301e-01 1.040018442999742811e-02
2.210879999999999927e+04 5.453258962916449626e-01 1.119801712936809718e-02
2.210900000000000000e+04 5.480663030463199803e-01 1.191362958148138064e-02
2.210919999999999709e+04 5.508789434890190018e-01 1.185842669483093935e-02
2.210939999999999782e+04 5.535936289305890545e-01 1.167942913105385686e-02
2.210959999999999854e+04 5.563228669887470001e-01 1.295722500269916137e-02
2.210979999999999927e+04 5.596329304928300274e-01 1.425115781619623080e-02
2.211000000000000000e+04 5.629650654836020340e-01 1.426212236729896589e-02
2.211019999999999709e+04 5.662802378264749636e-01 1.498507189465480942e-02
2.211039999999999782e+04 5.699492249690180090e-01 1.656617469894372183e-02
2.211059999999999854e+04 5.740010986467609655e-01 1.794752973810619448e-02
2.211079999999999927e+04 5.783137163605940323e-01 1.879025630275375433e-02
2.211100000000000000e+04 5.827582512766630307e-01 1.968452329455365121e-02
2.211119999999999709e+04 5.874875450501509944e-01 2.047941611321057662e-02
2.211139999999999782e+04 5.923024534795290341e-01 2.052680324015522528e-02
2.211159999999999854e+04 5.970538268797910275e-01 2.178542400616016728e-02
2.211179999999999927e+04 6.024551788951370002e-01 2.443517222057426524e-02
2.211200000000000000e+04 6.084411798232010060e-01 2.565094100057027302e-02
2.211219999999999709e+04 6.144090089078669825e-01 2.578836159946446688e-02
2.211239999999999782e+04 6.204590397891760478e-01 2.591975860426102077e-02
2.211259999999999854e+04 6.264880921850229933e-01 2.689521143740963155e-02
2.211279999999999927e+04 6.329926269747889744e-01 2.874383271666960948e-02
2.211300000000000000e+04 6.398830286518389920e-01 2.979474944490670060e-02
2.211319999999999709e+04 6.468772291067109714e-01 3.031675138886436027e-02
2.211339999999999782e+04 6.540108531269499537e-01 3.053271425068984635e-02
2.211359999999999854e+04 6.611056796311509665e-01 3.204807640944064284e-02
2.211379999999999927e+04 6.689453736944249718e-01 3.579047619903911320e-02
2.211400000000000000e+04 6.777839393868040352e-01 3.513940286274202379e-02
2.211419999999999709e+04 6.853202713949090308e-01 3.371587131723089575e-02
2.211439999999999782e+04 6.934955547334380466e-01 3.849872226724043722e-02
2.211459999999999854e+04 7.032604152532380137e-01 4.033805395977482083e-02
2.211479999999999927e+04 7.122927194694520514e-01 3.692458897494408504e-02
2.211500000000000000e+04 7.204671051612909771e-01 3.677194297949992058e-02
2.211519999999999709e+04 7.294282852807429940e-01 3.771655104429194605e-02
2.211539999999999782e+04 7.380428030249109872e-01 3.839894776332493376e-02
2.211559999999999854e+04 7.473219400619449670e-01 4.191232817921952680e-02
2.211579999999999927e+04 7.575734873750009646e-01 4.243747931567503490e-02
2.211600000000000000e+04 7.670973140945479551e-01 3.993117236323328462e-02
2.211619999999999709e+04 7.761810691093690151e-01 3.997875490245717672e-02
2.211639999999999782e+04 7.857270665062839887e-01 4.065431907929257377e-02
2.211659999999999854e+04 7.951255948740709734e-01 4.133985482559336677e-02
2.211679999999999927e+04 8.049910117913280372e-01 4.309647098853997688e-02
2.211700000000000000e+04 8.152080204429239529e-01 4.338785668972473808e-02
2.211719999999999709e+04 8.252092060364070170e-01 4.252544875153351639e-02
2.211739999999999782e+04 8.350243830819340518e-01 4.074017932615053850e-02
2.211759999999999854e+04 8.441937376491129852e-01 4.031910163442121303e-02
2.211779999999999927e+04 8.538127171439729990e-01 4.237530046500836284e-02
2.211800000000000000e+04 8.639401399778150470e-01 4.165860266665476208e-02
2.211819999999999709e+04 8.732251802604069635e-01 3.994135159498834325e-02
2.211839999999999782e+04 8.825524646381970317e-01 4.076703375329647494e-02
2.211859999999999854e+04 8.922222244638630118e-01 4.245216622787888888e-02
2.211879999999999927e+04 9.023346819119829609e-01 4.285651053749264111e-02
2.211900000000000000e+04 9.121928425119729678e-01 4.107121350729256437e-02
2.211919999999999709e+04 9.214734560712060096e-01 3.929061989808148997e-02
2.211939999999999782e+04 9.305019643012909514e-01 3.916804375837943525e-02
2.211959999999999854e+04 9.397254645563000164e-01 3.859336481521012663e-02
2.211979999999999927e+04 9.484862060457469601e-01 3.869817832470445057e-02
2.212000000000000000e+04 9.577585432594539760e-01 3.927936494402477913e-02
2.212019999999999709e+04 9.667900836854409485e-01 3.970387158496752056e-02
2.212039999999999782e+04 9.762602161393849620e-01 4.112742612364798239e-02
2.212059999999999854e+04 9.859550496328669533e-01 4.034496911270243902e-02
2.212079999999999927e+04 9.950606029317879964e-01 3.993993576725557437e-02
2.212100000000000000e+04 1.004566714600590105e+00 4.081095783177276365e-02
2.212119999999999709e+04 1.014078113183930041e+00 3.905758494893382671e-02
2.212139999999999782e+04 1.022767255747569992e+00 3.939816940535997847e-02
2.212159999999999854e+04 1.032437346746889917e+00 4.005635994033750896e-02
2.212179999999999927e+04 1.041433167563430073e+00 4.021265312786984764e-02
2.212200000000000000e+04 1.051176082037329929e+00 4.331968523878090838e-02
2.212219999999999709e+04 1.061619597903739942e+00 4.333886759663121285e-02
2.212239999999999782e+04 1.071371450233290057e+00 4.207045978522355040e-02
2.212259999999999854e+04 1.081223962323780041e+00 4.341901139481904592e-02
2.212279999999999927e+04 1.091604160747049912e+00 4.622359835103954928e-02
2.212300000000000000e+04 1.102763446153369964e+00 4.409967924750319429e-02
2.212319999999999709e+04 1.112154022627549921e+00 4.467205004375177091e-02
2.212339999999999782e+04 1.123579999313180089e+00 4.739851123560505364e-02
2.212359999999999854e+04 1.134240947071369909e+00 4.594084570087748898e-02
2.212379999999999927e+04 1.144987736962679969e+00 4.757750363870977273e-02
2.212400000000000000e+04 1.156411271495209947e+00 4.802031904047685679e-02
2.212419999999999709e+04 1.167364387437139994e+00 4.747700409779465752e-02
2.212439999999999782e+04 1.178534769016930106e+00 4.746338421695331378e-02
2.212459999999999854e+04 1.189481538892019907e+00 4.943202828022882217e-02
2.212479999999999927e+04 1.201569193343150044e+00 5.117586628916904329e-02
2.212500000000000000e+04 1.213328489630429941e+00 5.082351190021434234e-02
2.212519999999999709e+04 1.225251967566090006e+00 4.939043105527897437e-02
2.212539999999999782e+04 1.236343532085089958e+00 4.989102456324281260e-02
2.212559999999999854e+04 1.248500257286419890e+00 5.053314956059919150e-02
2.212579999999999927e+04 1.259891014458409897e+00 4.926429048784632808e-02
2.212600000000000000e+04 1.271456525622270073e+00 4.922094229489574341e-02
2.212619999999999709e+04 1.282827085074129903e+00 4.958280877144667642e-02
2.212639999999999782e+04 1.294561204829139944e+00 4.857150186378399875e-02
2.212659999999999854e+04 1.305460554473250046e+00 4.831595917341994367e-02
2.212679999999999927e+04 1.317075606296320034e+00 4.870394360728603350e-02
2.212700000000000000e+04 1.328155733970509900e+00 4.570831871976367700e-02
2.212719999999999709e+04 1.338374999986650105e+00 4.774421525879860018e-02
2.212739999999999782e+04 1.350403736248309894e+00 4.827923961182428725e-02
2.212759999999999854e+04 1.360872292288020091e+00 4.607349427933674080e-02
2.212779999999999927e+04 1.371873280368929970e+00 4.729213253209216955e-02
2.212800000000000000e+04 1.382909650484370090e+00 4.548817550416981575e-02
2.212819999999999709e+04 1.393070100209959916e+00 4.258187128381474285e-02
2.212839999999999782e+04 1.402752302719940003e+00 4.222978012420871424e-02
2.212859999999999854e+04 1.412748698579920026e+00 4.190275215978527673e-02
2.212879999999999927e+04 1.422278525205640021e+00 4.300571819195445761e-02
2.212900000000000000e+04 1.432788838659049935e+00 4.458098372059085546e-02
2.212919999999999709e+04 1.443052646790700111e+00 4.179938975605501650e-02
2.212939999999999782e+04 1.452266900316200093e+00 3.877428013318272998e-02
2.212959999999999854e+04 1.461121184480919988e+00 3.935511095561926992e-02
2.212979999999999927e+04 1.470606071162610107e+00 3.889858378338693912e-02
2.213000000000000000e+04 1.479247640394280028e+00 3.713821092328378065e-02
2.213019999999999709e+04 1.487912296391080025e+00 3.840388274993251916e-02
2.213039999999999782e+04 1.497143594590139903e+00 3.626955888972760444e-02
2.213059999999999854e+04 1.504813780630779974e+00 3.231980294695745853e-02
2.213079999999999927e+04 1.512204723814779994e+00 3.111830076304198528e-02
2.213100000000000000e+04 1.519315080184469924e+00 3.132285949268199393e-02
2.213119999999999709e+04 1.526801335759639944e+00 2.882216433824571003e-02
2.213139999999999782e+04 1.532746514600580090e+00 2.569563916218881028e-02
2.213159999999999854e+04 1.538775992498760070e+00 2.675660953744005144e-02
2.213179999999999927e+04 1.545215521415810089e+00 2.423479069770261007e-02
2.213200000000000000e+04 1.550069979384649965e+00 2.175784090843784629e-02
2.213219999999999709e+04 1.555355394722750084e+00 2.255120232097600902e-02
2.213239999999999782e+04 1.560579512659310053e+00 2.061117618475073743e-02
2.213259999999999854e+04 1.564960989404619918e+00 1.680981142967654524e-02
2.213279999999999927e+04 1.568413893931430048e+00 1.417475217514735548e-02
2.213300000000000000e+04 1.571567587344220085e+00 1.439597192812281864e-02
2.213319999999999709e+04 1.575123567323660101e+00 1.281586111035625496e-02
2.213339999999999782e+04 1.577541021609289995e+00 8.572646122268112040e-03
2.213359999999999854e+04 1.579119911840340063e+00 8.089969130858899043e-03
2.213379999999999927e+04 1.581312466908229908e+00 7.635794433765695673e-03
2.213400000000000000e+04 1.582679738321910001e+00 5.332971704149994108e-03
2.213419999999999709e+04 1.583799312825749928e+00 3.289030866969096419e-03
2.213439999999999782e+04 1.584214227480009951e+00 1.313410534944044238e-03
2.213459999999999854e+04 1.584413278579740014e+00 1.450329500284894442e-03
2.213479999999999927e+04 1.584891989455379901e+00 -3.712404815295705608e-04
2.213500000000000000e+04 1.584242295594689987e+00 -3.675301364414534748e-03
2.213519999999999709e+04 1.583181507548389932e+00 -3.584781610720255609e-03
2.213539999999999782e+04 1.582573990593080016e+00 -3.719098444371419544e-03
2.213559999999999854e+04 1.581450618766399918e+00 -5.878306834280187278e-03
2.213579999999999927e+04 1.579837037120890075e+00 -6.601553833487225874e-03
2.213600000000000000e+04 1.578376674537969926e+00 -6.008135403697580090e-03
2.213619999999999709e+04 1.577039591136710106e+00 -5.854385472870178055e-03
2.213639999999999782e+04 1.575650867019650070e+00 -8.132283213591164420e-03
2.213659999999999854e+04 1.573252416639830065e+00 -9.886074695505236640e-03
2.213679999999999927e+04 1.571046528374939966e+00 -8.308787183057579281e-03
2.213700000000000000e+04 1.569383001627310037e+00 -7.728621351881223567e-03
2.213719999999999709e+04 1.567447436671649985e+00 -9.252850231961073577e-03
2.213739999999999782e+04 1.565073708507989991e+00 -9.353133149633931567e-03
2.213759999999999854e+04 1.563091417584119958e+00 -8.619127874404948486e-03
2.213779999999999927e+04 1.561059692903439933e+00 -8.151491938680243202e-03
2.213800000000000000e+04 1.559295292946000000e+00 -8.182129860513328787e-03
2.213819999999999709e+04 1.557249292787600048e+00 -8.516792667735265110e-03
2.213839999999999782e+04 1.555328959556169899e+00 -7.675578457630281501e-03
2.213859999999999854e+04 1.553674915967389936e+00 -7.829502313590856744e-03
2.213879999999999927e+04 1.551682863231170106e+00 -8.245698553837312039e-03
2.213900000000000000e+04 1.549834896562310105e+00 -8.303394346319339925e-03
2.213919999999999709e+04 1.547815960964860071e+00 -6.996784961615810233e-03
2.213939999999999782e+04 1.546576797768590028e+00 -6.063086872321191492e-03
2.213959999999999854e+04 1.544992910813629994e+00 -6.275767874403466104e-03
2.213979999999999927e+04 1.543654650722650068e+00 -5.829625423683535042e-03
2.214000000000000000e+04 1.542278640028529990e+00 -5.859231637566130434e-03
2.214019999999999709e+04 1.540926585175319996e+00 -4.866738961942697166e-03
2.214039999999999782e+04 1.540013017958580033e+00 -4.582410569250721516e-03
2.214059999999999854e+04 1.538793443489200108e+00 -4.902162184525700982e-03
2.214079999999999927e+04 1.537730890740879985e+00 -4.333246863936824657e-03
2.214100000000000000e+04 1.536776397501470104e+00 -3.502255141336301728e-03
2.214119999999999709e+04 1.536101038242160044e+00 -2.922996227765059171e-03
2.214139999999999782e+04 1.535416445741440095e+00 -3.825921203225960722e-03
2.214159999999999854e+04 1.534320376308909939e+00 -3.881277757519820560e-03
2.214179999999999927e+04 1.533609990894960085e+00 -2.411853929623449661e-03
2.214200000000000000e+04 1.533198586932930096e+00 -2.432696384484741604e-03
2.214219999999999709e+04 1.532478490155330109e+00 -2.688932337962209648e-03
2.214239999999999782e+04 1.531947695241340002e+00 -2.329186683820003243e-03
2.214259999999999854e+04 1.531395218875809983e+00 -1.879091101936839012e-03
2.214279999999999927e+04 1.531074142150329997e+00 -1.861724619038773081e-03
2.214300000000000000e+04 1.530529757549039971e+00 -2.114023226573048548e-03
2.214319999999999709e+04 1.530091124444290074e+00 -4.545580632747505995e-04
2.214339999999999782e+04 1.530319953449059911e+00 -2.556929544213628149e-04
2.214359999999999854e+04 1.529973979841680043e+00 -1.409719611866622939e-03
2.214379999999999927e+04 1.529665099991190047e+00 3.357007729952731927e-05
2.214400000000000000e+04 1.529991614875789940e+00 1.068139476636254187e-03
2.214419999999999709e+04 1.530164783792379968e+00 8.324465290661016165e-04
2.214439999999999782e+04 1.530381479562999969e+00 2.762571957091672641e-04
2.214459999999999854e+04 1.530295496814580103e+00 7.214821232316824149e-04
2.214479999999999927e+04 1.530719641333950110e+00 1.739775994798796769e-03
2.214500000000000000e+04 1.531108123909590057e+00 2.484992845794247243e-03
2.214519999999999709e+04 1.531879495849810091e+00 2.771820986594424573e-03
2.214539999999999782e+04 1.532401623545559977e+00 2.433091001326523166e-03
2.214559999999999854e+04 1.533015167144959889e+00 3.870519611351505226e-03
2.214579999999999927e+04 1.534207052412970063e+00 4.881169165307514511e-03
2.214600000000000000e+04 1.535291499531989956e+00 4.775102243692841766e-03
2.214619999999999709e+04 1.536433963824620053e+00 5.019856633277556754e-03
2.214639999999999782e+04 1.537632452159060081e+00 5.329420678909831642e-03
2.214659999999999854e+04 1.538919155172310038e+00 6.210755895278306446e-03
2.214679999999999927e+04 1.540528294116279895e+00 7.742741762112180688e-03
2.214700000000000000e+04 1.542528812847230091e+00 8.942354799912014679e-03
