# energy mu dmude
2.653921017399999982e+04 4.530566146823660212e-01 -5.545315411657925238e-05
2.654421017399999982e+04 4.531850678579770197e-01 -4.936775119503065528e-05
2.654921017399999982e+04 4.534013247183509843e-01 -4.121701335662988420e-05
2.655421017399999982e+04 4.536473814158609730e-01 -3.832866269776079228e-05
2.655921017399999982e+04 4.539053130566900185e-01 -2.477529926928337528e-05
2.656421017399999982e+04 4.543469254577899852e-01 1.233808441007260307e-06
2.656921017399999982e+04 4.549801314270079944e-01 1.955048333366637061e-07
2.657421017399999982e+04 4.554067625879449910e-01 -2.566170811464876952e-05
2.657921017399999982e+04 4.556668858535519728e-01 -4.234852028000066345e-05
2.658421017399999982e+04 4.558527501147530137e-01 -3.940949256196335239e-05
2.658921017399999982e+04 4.561552793584999765e-01 -2.260972140111498191e-05
2.659421017399999982e+04 4.565835403566330108e-01 -9.000368920159993683e-06
2.659921017399999982e+04 4.570824331461419976e-01 -4.912149049068252533e-06
2.660421017399999982e+04 4.575696813261310170e-01 5.064435666175099233e-06
2.660921017399999982e+04 4.582125220038310021e-01 1.490418719040140878e-05
2.661421017399999982e+04 4.588417437642249852e-01 1.894253286314096386e-05
2.661921017399999982e+04 4.595428520102329828e-01 2.065663403555264711e-05
2.662421017399999982e+04 4.601968058057829825e-01 2.410525483145692133e-05
2.662921017399999982e+04 4.609476727312299960e-01 2.927988100972079948e-05
2.663421017399999982e+04 4.616762890021460231e-01 3.513507062322195984e-05
2.663921017399999982e+04 4.625116379626659779e-01 6.638023296951841700e-05
2.664421017399999982e+04 4.636910773623689752e-01 1.187702620143094490e-04
2.664921017399999982e+04 4.652823397199600253e-01 1.781763857856512236e-04
2.665421017399999982e+04 4.673189247568300120e-01 2.532920048721680039e-04
2.665921017399999982e+04 4.699939983630879725e-01 3.475555505748485589e-04
2.666421017399999982e+04 4.733906719196859791e-01 4.581338411734914295e-04
2.666921017399999982e+04 4.776612325453770125e-01 6.185077021299932717e-04
2.667421017399999982e+04 4.833718721800109863e-01 8.370720244808265570e-04
2.667921017399999982e+04 4.907960042466609774e-01 1.010440007020267433e-03
2.668059999999999854e+04 4.933631475145350276e-01 1.274364241034152976e-03
2.668159999999999854e+04 4.954428475676009858e-01 1.410528240061369523e-03
2.668259999999999854e+04 4.976449329128930232e-01 1.499784250419241433e-03
2.668359999999999854e+04 4.999822003513140212e-01 1.549227059771625392e-03
2.668459999999999854e+04 5.023269635406909517e-01 1.756141405715276604e-03
2.668559999999999854e+04 5.052613267585820411e-01 2.010919552526508822e-03
2.668659999999999854e+04 5.083413070034440429e-01 2.126545709392958089e-03
2.668759999999999854e+04 5.116093343273520055e-01 2.118727312251622932e-03
2.668779999999999927e+04 5.121365745463509755e-01 2.442761727955480942e-03
2.668800000000000000e+04 5.130614376867169701e-01 2.389177986430528113e-03
2.668819999999999709e+04 5.135577524270780181e-01 3.189932904244804825e-03
2.668839999999999782e+04 5.149447656224670489e-01 2.880885559719423717e-03
2.668859999999999854e+04 5.152627158669169649e-01 2.241623430937597986e-03
2.668879999999999927e+04 5.162807834318500211e-01 2.978409662693210207e-03
2.668900000000000000e+04 5.170239646551849644e-01 2.656779532212156895e-03
2.668919999999999709e+04 5.178564056579769703e-01 2.637357649803555477e-03
2.668939999999999782e+04 5.185883776788150490e-01 2.446334187240685725e-03
2.668959999999999854e+04 5.193105708370300277e-01 3.425911095250892911e-03
2.668979999999999927e+04 5.206078987637380306e-01 3.201833589700073344e-03
2.669000000000000000e+04 5.212007671695010336e-01 2.597670221977345199e-03
2.669019999999999709e+04 5.221494064682179470e-01 2.877907464084368885e-03
2.669039999999999782e+04 5.229040118224259626e-01 2.571071538889527913e-03
2.669059999999999854e+04 5.236755629303040394e-01 3.142896780938314507e-03
2.669079999999999927e+04 5.247601931912589945e-01 4.757388360308300104e-03
2.669100000000000000e+04 5.264635367310630532e-01 3.706525908374821553e-03
2.669119999999999709e+04 5.269416691370579775e-01 2.196550780760031085e-03
2.669139999999999782e+04 5.277735411781729891e-01 3.515714331265342926e-03
2.669159999999999854e+04 5.290130195264810542e-01 3.988293463611333745e-03
2.669179999999999927e+04 5.301176372818710014e-01 3.667496484995086316e-03
2.669200000000000000e+04 5.311719699157769758e-01 4.018932677205444733e-03
2.669219999999999709e+04 5.324794165916489908e-01 3.996442949162819745e-03
2.669239999999999782e+04 5.335207694375809773e-01 3.453234942680651759e-03
2.669259999999999854e+04 5.345147074424669853e-01 4.030043199446124193e-03
2.669279999999999927e+04 5.358889611069560521e-01 4.316782882686233044e-03
2.669300000000000000e+04 5.370483888983420551e-01 4.332824590933623959e-03
2.669319999999999709e+04 5.384319009216199658e-01 4.670550519744330782e-03
2.669339999999999782e+04 5.397862448516520528e-01 4.312519622964264276e-03
2.669359999999999854e+04 5.409631218672049657e-01 5.513341138909974397e-03
2.669379999999999927e+04 5.430105114686729628e-01 5.416706117800825816e-03
2.669400000000000000e+04 5.441316162631260056e-01 3.454624992867481263e-03
2.669419999999999709e+04 5.450466045771370505e-01 4.511978174561315745e-03
2.669439999999999782e+04 5.467779533054419883e-01 5.631281800530866556e-03
2.669459999999999854e+04 5.483389398154620009e-01 5.380783204934304863e-03
2.669479999999999927e+04 5.499257150454800458e-01 5.235342120630225894e-03
2.669500000000000000e+04 5.514027612591380079e-01 6.107053863143864850e-03
2.669519999999999709e+04 5.534926387752390209e-01 6.198884134153218040e-03
2.669539999999999782e+04 5.550226841823530100e-01 5.662034026209093740e-03
2.669559999999999854e+04 5.568027224437930300e-01 6.353350294276253335e-03
2.669579999999999927e+04 5.587317561608390326e-01 6.552375509956528433e-03
2.669600000000000000e+04 5.606266604222650551e-01 6.832745544882504879e-03
2.669619999999999709e+04 5.627175077281599824e-01 7.120288201804475699e-03
2.669639999999999782e+04 5.647783652066840077e-01 6.585445231465421149e-03
2.669659999999999854e+04 5.665605316632400523e-01 6.373420266526156480e-03
2.669679999999999927e+04 5.684990204281490378e-01 6.711513026146061558e-03
2.669700000000000000e+04 5.704763147371689769e-01 7.768694590868267108e-03
2.669719999999999709e+04 5.730249483883690376e-01 8.781236456189422598e-03
2.669739999999999782e+04 5.755866240959429669e-01 9.166503124460732843e-03
2.669759999999999854e+04 5.783576116884280305e-01 9.151027470204688499e-03
2.669779999999999927e+04 5.809103557312600419e-01 7.716205536545010096e-03
2.669800000000000000e+04 5.828532459610650251e-01 7.870397548734132248e-03
2.669819999999999709e+04 5.854949808365470520e-01 9.672910389349004268e-03
2.669839999999999782e+04 5.884781786435360207e-01 9.799042673876382642e-03
2.669859999999999854e+04 5.911927098777780554e-01 9.568991497890866338e-03
2.669879999999999927e+04 5.940431352705419776e-01 1.061136519202505665e-02
2.669900000000000000e+04 5.973592651330109637e-01 1.122063699391640836e-02
2.669919999999999709e+04 6.005613274504559840e-01 1.141142837708018255e-02
2.669939999999999782e+04 6.039875712145259534e-01 1.040943169741745736e-02
2.669959999999999854e+04 6.066113382130250420e-01 1.179299298940333918e-02
2.669979999999999927e+04 6.108360946218509557e-01 1.319578746346168271e-02
2.670000000000000000e+04 6.142694745605330464e-01 1.199163162939491725e-02
2.670019999999999709e+04 6.177992609196649720e-01 1.299391317113841697e-02
2.670039999999999782e+04 6.218111005834899840e-01 1.430473725719295409e-02
2.670059999999999854e+04 6.260974198218820508e-01 1.510261871000358885e-02
2.670079999999999927e+04 6.305697511406670452e-01 1.674970654752155549e-02
2.670100000000000000e+04 6.358066755115530100e-01 1.598581737145729487e-02
2.670119999999999709e+04 6.398381335781520018e-01 1.501009824241096233e-02
2.670139999999999782e+04 6.445119285331030179e-01 1.721878691319107466e-02
2.670159999999999854e+04 6.498181156935789460e-01 1.811826870935986239e-02
2.670179999999999927e+04 6.550110402253169761e-01 1.847278107385632445e-02
2.670200000000000000e+04 6.605218316974430515e-01 1.908518689198223511e-02
2.670219999999999709e+04 6.660682019291940259e-01 1.966018978555265570e-02
2.670239999999999782e+04 6.719108522672350148e-01 1.854517918090094891e-02
2.670259999999999854e+04 6.768137019900900553e-01 2.024796472589333873e-02
2.670279999999999927e+04 6.836391029997920255e-01 2.491760498443557070e-02
2.670300000000000000e+04 6.912370026741769813e-01 2.511280368312495889e-02
2.670319999999999709e+04 6.981750612364310271e-01 2.559429868572506150e-02
2.670339999999999782e+04 7.060508523567430306e-01 2.779510265576217928e-02
2.670359999999999854e+04 7.142590894134870361e-01 2.582723596793490978e-02
2.670379999999999927e+04 7.209991401495280394e-01 2.529764992997248288e-02
2.670400000000000000e+04 7.289017303583520402e-01 2.865954179268325602e-02
2.670419999999999709e+04 7.375820732795069778e-01 3.114254892021378271e-02
2.670439999999999782e+04 7.469177135453239913e-01 3.355007864159209596e-02
2.670459999999999854e+04 7.569875452708469954e-01 3.292975733006461153e-02
2.670479999999999927e+04 7.659651714653430421e-01 3.327422890127568894e-02
2.670500000000000000e+04 7.762338125294649949e-01 3.743027117241189139e-02
2.670519999999999709e+04 7.876100692180280083e-01 3.782731046431570682e-02
2.670539999999999782e+04 7.981078587101120281e-01 3.618647271392180786e-02
2.670559999999999854e+04 8.085371174600970434e-01 3.900644836137424215e-02
2.670579999999999927e+04 8.206624360146349551e-01 4.342246024648446778e-02
2.670600000000000000e+04 8.336403648886520079e-01 4.279654820248812025e-02
2.670619999999999709e+04 8.454044427198169620e-01 4.336500075886695615e-02
2.670639999999999782e+04 8.587104499788229539e-01 4.646326878990830744e-02
2.670659999999999854e+04 8.722626713597350090e-01 4.981193337914180397e-02
2.670679999999999927e+04 8.875013367763779915e-01 4.911638650490261077e-02
2.670700000000000000e+04 9.006521281828340220e-01 4.849311195309344985e-02
2.670719999999999709e+04 9.155310750860949920e-01 4.882115701239721911e-02
2.670739999999999782e+04 9.288711953856170211e-01 4.800395163044904323e-02
2.670759999999999854e+04 9.432784979647179657e-01 4.879352989929321149e-02
2.670779999999999927e+04 9.570743177951159808e-01 5.639530785258953932e-02
2.670800000000000000e+04 9.758689329229930376e-01 6.112284877031102376e-02
2.670819999999999709e+04 9.923932196618120427e-01 5.487296606699272605e-02
2.670839999999999782e+04 1.007580759052820074e+00 5.414044632599129131e-02
2.670859999999999854e+04 1.023682277188100009e+00 5.724659836424010606e-02
2.670879999999999927e+04 1.040662510327799994e+00 6.000737319481002502e-02
2.670900000000000000e+04 1.058357390191470015e+00 5.996217767142858479e-02
2.670919999999999709e+04 1.075311539053189991e+00 5.876713975308670013e-02
2.670939999999999782e+04 1.092316711208010105e+00 5.834916212679416847e-02
2.670959999999999854e+04 1.109029627230009973e+00 5.891672282935669219e-02
2.670979999999999927e+04 1.126362363042680004e+00 5.627415438070504372e-02
2.671000000000000000e+04 1.141550139316189982e+00 5.925450239275376063e-02
2.671019999999999709e+04 1.160602961970510050e+00 6.825006741085613837e-02
2.671039999999999782e+04 1.180982465170189899e+00 6.756045803206890688e-02
2.671059999999999854e+04 1.199637284634049950e+00 6.564840887442900674e-02
2.671079999999999927e+04 1.218913262143459963e+00 6.269834123976197882e-02
2.671100000000000000e+04 1.235865470871670091e+00 5.844239765355891542e-02
2.671119999999999709e+04 1.252685160546880061e+00 6.250083235357301037e-02
2.671139999999999782e+04 1.271979666247849972e+00 6.799493567571529562e-02
2.671159999999999854e+04 1.291970238919130098e+00 6.285950317571623036e-02
2.671179999999999927e+04 1.308300865960519976e+00 5.667196187885142900e-02
2.671200000000000000e+04 1.324720342798090034e+00 6.231201347606354912e-02
2.671219999999999709e+04 1.344306085852829957e+00 6.582572150702631353e-02
2.671239999999999782e+04 1.362753474506759988e+00 6.236891246610768574e-02
2.671259999999999854e+04 1.380344144596399980e+00 6.051029108666502315e-02
2.671279999999999927e+04 1.397718843025550051e+00 6.491199803753072706e-02
2.671300000000000000e+04 1.417849927247279984e+00 6.334159116103114939e-02
2.671319999999999709e+04 1.434318276419610072e+00 5.915507550657423536e-02
2.671339999999999782e+04 1.452033142648770037e+00 5.726230066310662725e-02
2.671359999999999854e+04 1.467409090165670005e+00 5.617117543569714877e-02
2.671379999999999927e+04 1.484494221162899974e+00 5.760956002913150686e-02
2.671400000000000000e+04 1.500700322206450110e+00 5.710868335909302651e-02
2.671419999999999709e+04 1.517496375764739946e+00 5.437524607467437987e-02
2.671439999999999782e+04 1.532124892751929979e+00 5.528399516890641213e-02
2.671459999999999854e+04 1.549445424443030017e+00 5.868967717853050547e-02
2.671479999999999927e+04 1.566039506790029900e+00 5.386176581382185607e-02
2.671500000000000000e+04 1.580573643476580026e+00 4.999786352528068356e-02
2.671519999999999709e+04 1.594937701860249968e+00 5.366624628800668179e-02
2.671539999999999782e+04 1.611589019794049893e+00 4.551142200539273069e-02
2.671559999999999854e+04 1.621246578839560026e+00 4.178011623758259158e-02
2.671579999999999927e+04 1.635744399957349993e+00 4.808798321147436661e-02
2.671600000000000000e+04 1.649042499952700025e+00 4.863903906542989958e-02
2.671619999999999709e+04 1.663858359071080040e+00 4.744132098112439216e-02
2.671639999999999782e+04 1.676465204518690078e+00 4.246308506249558273e-02
2.671659999999999854e+04 1.688407909876350033e+00 3.880562521428387174e-02
2.671679999999999927e+04 1.698903878159790048e+00 3.882150428921514462e-02
2.671700000000000000e+04 1.710855748013589972e+00 3.994989325120086587e-02
2.671719999999999709e+04 1.722002958030429909e+00 3.365661700535308581e-02
2.671739999999999782e+04 1.730322707870239896e+00 2.819498162932905158e-02
2.671759999999999854e+04 1.738317773537700006e+00 3.209852072673387985e-02
2.671779999999999927e+04 1.748890423445349951e+00 3.265387757180049366e-02
2.671800000000000000e+04 1.757206009400350100e+00 2.795737283777845542e-02
2.671819999999999709e+04 1.765068104713710007e+00 2.641954889085874197e-02
2.671839999999999782e+04 1.772496146420309948e+00 2.851605160786259072e-02
2.671859999999999854e+04 1.781568223495360037e+00 2.815950000623982166e-02
2.671879999999999927e+04 1.788790483958980104e+00 2.195025199213448616e-02
2.671900000000000000e+04 1.794278937321510003e+00 1.879293970351899809e-02
2.671919999999999709e+04 1.799678977258549972e+00 1.784716740920813324e-02
2.671939999999999782e+04 1.804621584809670054e+00 1.726318142900299529e-02
2.671959999999999854e+04 1.809684581355770039e+00 1.836287973965797585e-02
2.671979999999999927e+04 1.815261872033369972e+00 1.631496754425647636e-02
2.672000000000000000e+04 1.819142930494870081e+00 1.358411819322338093e-02
2.672019999999999709e+04 1.823144130723530099e+00 1.249878507211525311e-02
2.672039999999999782e+04 1.826398796826419924e+00 9.172606864451753050e-03
2.672059999999999854e+04 1.828480316754089952e+00 9.407336520904278562e-03
2.672079999999999927e+04 1.831870455423219912e+00 9.835452967912074879e-03
2.672100000000000000e+04 1.834199059739809901e+00 8.708291412509509138e-03
2.672119999999999709e+04 1.836938665064340004e+00 8.214482739632019206e-03
2.672139999999999782e+04 1.838982271187020068e+00 5.558523812605504696e-03
2.672159999999999854e+04 1.840189008542920002e+00 4.471172236961528344e-03
2.672179999999999927e+04 1.841605057370180099e+00 4.833508829587731224e-03
2.672200000000000000e+04 1.843020914735830074e+00 3.564731166893510533e-03
2.672219999999999709e+04 1.843704697480669896e+00 2.040529965429449186e-03
2.672239999999999782e+04 1.844240872869409964e+00 1.158241344879023735e-03
2.672259999999999854e+04 1.844415448957559933e+00 1.679552023582938074e-03
2.672279999999999927e+04 1.845252495128969938e+00 -1.145259096811398775e-03
2.672300000000000000e+04 1.843796751395549993e+00 -2.754626844286888702e-03
2.672319999999999709e+04 1.843704962318500007e+00 -2.957273819844714207e-04
2.672339999999999782e+04 1.843668355073059928e+00 -1.892996485921335592e-03
2.672359999999999854e+04 1.842654713394350052e+00 -3.062485377005002944e-03
2.672379999999999927e+04 1.841943143880999889e+00 -3.270049218669396091e-03
2.672400000000000000e+04 1.840809708194520056e+00 -2.958168238476377269e-03
2.672419999999999709e+04 1.840278138589960033e+00 -3.058139689169937780e-03
2.672439999999999782e+04 1.839087005085570103e+00 -4.141755636738939789e-03
2.672459999999999854e+04 1.837930034176979976e+00 -3.989634018881001512e-03
2.672479999999999927e+04 1.836826696591790098e+00 -4.020203119755956858e-03
2.672500000000000000e+04 1.835652082942160090e+00 -4.257744499740120751e-03
2.672519999999999709e+04 1.834411650024339924e+00 -4.631566256549940301e-03
2.672539999999999782e+04 1.833021287783429987e+00 -4.603487051648886413e-03
2.672559999999999854e+04 1.831797060580719894e+00 -4.695232035718660372e-03
2.672579999999999927e+04 1.830353748369109912e+00 -4.900206006568311699e-03
2.672600000000000000e+04 1.829011221884309979e+00 -5.433925009650185205e-03
2.672619999999999709e+04 1.827259877513129904e+00 -5.074452234037287943e-03
2.672639999999999782e+04 1.826124818206279921e+00 -2.823503296240645940e-03
2.672659999999999854e+04 1.825672593144020084e+00 -3.282609103646131742e-03
2.672679999999999927e+04 1.824272564157390031e+00 -4.594013995839136937e-03
2.672700000000000000e+04 1.823063471007769998e+00 -3.821073281686550305e-03
2.672719999999999709e+04 1.822109539304650028e+00 -3.609312439118429056e-03
2.672739999999999782e+04 1.821022662432280059e+00 -3.352449179472044398e-03
2.672759999999999854e+04 1.820216977548410053e+00 -2.366070924370296952e-03
2.672779999999999927e+04 1.819699381931429993e+00 -2.031864871164625660e-03
2.672800000000000000e+04 1.819086581714820072e+00 -2.248659920307874687e-03
2.672819999999999709e+04 1.818443864363769924e+00 -2.108634575006667570e-03
2.672839999999999782e+04 1.817911878787940028e+00 -1.291062311795120911e-03
2.672859999999999854e+04 1.817741017504229895e+00 -1.096166342687729953e-03
2.672879999999999927e+04 1.817321514762840096e+00 1.739624761611712823e-04
2.672900000000000000e+04 1.817883699371779960e+00 1.504942389170701523e-03
2.672919999999999709e+04 1.818232362302989902e+00 6.841085289581300133e-04
2.672939999999999782e+04 1.818320808436870051e+00 8.164393688004642014e-04
2.672959999999999854e+04 1.818745845179289944e+00 1.664820992374521332e-03
2.672979999999999927e+04 1.819323928785629985e+00 2.016294508918762239e-03
2.673000000000000000e+04 1.819951815990030086e+00 2.837895217398743539e-03
2.673019999999999709e+04 1.821004080652490087e+00 3.155685058905411886e-03
2.673039999999999782e+04 1.821815378023309950e+00 2.901400482206709184e-03
2.673059999999999854e+04 1.822720884135200059e+00 3.855453045053654389e-03
2.673079999999999927e+04 1.824082806216039909e+00 5.197417888742582315e-03
2.673100000000000000e+04 1.825762817875830057e+00 5.368031424033564876e-03
2.673119999999999709e+04 1.827223208355609918e+00 5.213955202621886435e-03
2.673139999999999782e+04 1.828814296010540019e+00 5.350968640440396246e-03
2.673159999999999854e+04 1.830353762829959985e+00 5.423945889356214869e-03
2.673179999999999927e+04 1.831986968789570014e+00 6.049388596392954280e-03
2.673200000000000000e+04 1.833887405457619968e+00 6.063422361512253028e-03
2.673219999999999709e+04 1.835528710905790062e+00 6.579554058422742817e-03
2.673239999999999782e+04 1.837727029343680041e+00 8.072487470147158770e-03
2.673259999999999854e+04 1.840229970784410085e+00 8.066880000033657336e-03
2.673279999999999927e+04 1.842425052910459993e+00 7.190098837669067593e-03
2.673300000000000000e+04 1.844421966285149983e+00 8.225536427277834947e-03
2.673319999999999709e+04 1.847214643915559895e+00 9.972753740576399684e-03
