# energy mu dmude
1.982270739400000093e+04 4.408420833498939984e-01 -2.475096671556494422e-05
1.982770739400000093e+04 4.407712708763599774e-01 -2.564007266008639470e-05
1.983270739400000093e+04 4.406902037079479806e-01 -2.733709034850194378e-05
1.983770739400000093e+04 4.405998183154560266e-01 -2.698465751888548021e-05
1.984270739400000093e+04 4.405228160069800114e-01 -2.360984453867272297e-05
1.984770739400000093e+04 4.404713547467529744e-01 -2.242581371889323740e-05
1.985270739400000093e+04 4.404080087127150156e-01 -2.071604106413431088e-05
1.985770739400000093e+04 4.403762674835969837e-01 -1.933850052795714502e-05
1.986270739400000093e+04 4.403288096099829962e-01 -1.977935629088869377e-05
1.986770739400000093e+04 4.402919836759859873e-01 -1.615334971661527152e-05
1.987270739400000093e+04 4.402863471300479947e-01 -1.642026545445086588e-05
1.987770739400000093e+04 4.402464426659090102e-01 -1.400442390154584360e-05
1.988270739400000093e+04 4.402686697487669942e-01 -5.305472602357900851e-06
1.988770739400000093e+04 4.403290965127349965e-01 -8.429749684117475390e-07
1.989270739400000093e+04 4.404027927730420067e-01 -2.058193361763658222e-06
1.989770739400000093e+04 4.404492035539759875e-01 2.891844380076659916e-06
1.990270739400000093e+04 4.405799921405569863e-01 1.418650152763471542e-05
1.990770739400000093e+04 4.407566722819790117e-01 1.665256924743947157e-05
1.991270739400000093e+04 4.409159037916680068e-01 2.403849604249680107e-05
1.991770739400000093e+04 4.411777711103220256e-01 4.115244075884741740e-05
1.992270739400000093e+04 4.415343899868430233e-01 5.114166722510534325e-05
1.992770739400000093e+04 4.419114702001010198e-01 6.059246501362617558e-05
1.993270739400000093e+04 4.423770918881220204e-01 8.046625317762530656e-05
1.993770739400000093e+04 4.429833907169409835e-01 1.060039144257615869e-04
1.994270739400000093e+04 4.437435565204400079e-01 1.373440248843549847e-04
1.994770739400000093e+04 4.447113232622489920e-01 1.773902507534796198e-04
1.995270739400000093e+04 4.459333708356659765e-01 2.278093181566693182e-04
1.995770739400000093e+04 4.474826567489920137e-01 3.001128322240176750e-04
1.996270739400000093e+04 4.495386324722889793e-01 3.523005846930951537e-04
1.996379999999999927e+04 4.500459259539840162e-01 4.110241916155781819e-04
1.996479999999999927e+04 4.505607620403079827e-01 4.405281158660328406e-04
1.996579999999999927e+04 4.510908802637029757e-01 4.521699385046464882e-04
1.996679999999999927e+04 4.516325710437150143e-01 4.885917550465773695e-04
1.996779999999999927e+04 4.522467050399969768e-01 5.577247757383545224e-04
1.996879999999999927e+04 4.529478679363639904e-01 5.694154263558761503e-04
1.996979999999999927e+04 4.535889692599360257e-01 5.869879050557306327e-04
1.997079999999999927e+04 4.543306673497580217e-01 7.064844257780304075e-04
1.997100000000000000e+04 4.545840375705770264e-01 1.209537484975549198e-03
1.997120000000000073e+04 4.548944396182200145e-01 1.018243467895966385e-03
1.997139999999999782e+04 4.550595566094070010e-01 5.553414603770818287e-04
1.997159999999999854e+04 4.551563994575100192e-01 2.112652193101458671e-04
1.997179999999999927e+04 4.551627773518059916e-01 1.178988828632204257e-04
1.997200000000000000e+04 4.552165457700039775e-01 7.686583927332384797e-04
1.997220000000000073e+04 4.555231506621629789e-01 1.246965011470571290e-03
1.997239999999999782e+04 4.557975851759309971e-01 9.235238399780793753e-04
1.997259999999999854e+04 4.559549709319439814e-01 4.881916073727902072e-04
1.997279999999999927e+04 4.560285655236159807e-01 4.958009287128451424e-04
1.997300000000000000e+04 4.561894618294820014e-01 8.920989546809473831e-04
1.997320000000000073e+04 4.564458879661270063e-01 5.525581870253094960e-04
1.997339999999999782e+04 4.564501376094690088e-01 1.064033613572263346e-03
1.997359999999999854e+04 4.569425322251949861e-01 1.274753063271992894e-03
1.997379999999999927e+04 4.570439969945829795e-01 5.086857487489035217e-04
1.997400000000000000e+04 4.571829675165969831e-01 6.249817091313185921e-04
1.997420000000000073e+04 4.573380852661099727e-01 7.464862301569045837e-04
1.997439999999999782e+04 4.575331117304790030e-01 1.408133352611881531e-03
1.997459999999999854e+04 4.579934794628269801e-01 1.751675565592693620e-03
1.997479999999999927e+04 4.583469986509779992e-01 9.365479865041233211e-04
1.997500000000000000e+04 4.584313084045589792e-01 8.249781527185864221e-05
1.997520000000000073e+04 4.583908127300079793e-01 5.223174190101535124e-04
1.997539999999999782e+04 4.586780326481390002e-01 1.357586542062562624e-03
1.997559999999999854e+04 4.590228872257410275e-01 1.501540289089799834e-03
1.997579999999999927e+04 4.593765200055350273e-01 8.920118264750172840e-04
1.997600000000000000e+04 4.594401694717750173e-01 6.712763414187410994e-04
1.997620000000000073e+04 4.596919662414989949e-01 7.015871321496775295e-04
1.997639999999999782e+04 4.597695995490260201e-01 4.653606088208804320e-04
1.997659999999999854e+04 4.599124135396460145e-01 1.093448599614217772e-03
1.997679999999999927e+04 4.602798143711370193e-01 2.198441587046733037e-03
1.997700000000000000e+04 4.609324153448819961e-01 1.489763844112411331e-03
1.997720000000000073e+04 4.609728686819660193e-01 5.912455399777105571e-04
1.997739999999999782e+04 4.612109394815290253e-01 8.571574066745045028e-04
1.997759999999999854e+04 4.613740708897329790e-01 1.162184539307818589e-03
1.997779999999999927e+04 4.617528655341430199e-01 1.479716206327653157e-03
1.997800000000000000e+04 4.620624897367969774e-01 1.230322963314484227e-03
1.997820000000000073e+04 4.623262271542259993e-01 1.250101752729606934e-03
1.997839999999999782e+04 4.626449762739560101e-01 1.106614914597504407e-03
1.997859999999999854e+04 4.628425162375000013e-01 1.381752432283561791e-03
1.997879999999999927e+04 4.632881996696520122e-01 1.834111672802888520e-03
1.997900000000000000e+04 4.636944349417960187e-01 1.502030004337916863e-03
1.997920000000000073e+04 4.639869129564990202e-01 1.267649127261656324e-03
1.997939999999999782e+04 4.642850169358729850e-01 1.114446856716988423e-03
1.997959999999999854e+04 4.645068152954139884e-01 1.406284014221658839e-03
1.997979999999999927e+04 4.649395579428929892e-01 1.887756456816823284e-03
1.998000000000000000e+04 4.653834829464579825e-01 1.485174999026062743e-03
1.998020000000000073e+04 4.656304951964019834e-01 1.220102215093501205e-03
1.998039999999999782e+04 4.659521292385109814e-01 1.553631179445255726e-03
1.998059999999999854e+04 4.663530146138539778e-01 1.504792198985647426e-03
1.998079999999999927e+04 4.666521168600299974e-01 1.838470273553774285e-03
1.998100000000000000e+04 4.672069441525649736e-01 2.274946288765487129e-03
1.998120000000000073e+04 4.677074140033610217e-01 1.650029438913714307e-03
1.998139999999999782e+04 4.679739367734049860e-01 1.448420050334470492e-03
1.998159999999999854e+04 4.683813944122309780e-01 1.596126835586102926e-03
1.998179999999999927e+04 4.687160615029209998e-01 2.248842794249411494e-03
1.998200000000000000e+04 4.694246487445489779e-01 2.422708793122471758e-03
1.998220000000000073e+04 4.698395286728240250e-01 1.805807702321859292e-03
1.998239999999999782e+04 4.702635094512879754e-01 1.407796003667236874e-03
1.998259999999999854e+04 4.704947672340730191e-01 1.838542559120507573e-03
1.998279999999999927e+04 4.711174723388449892e-01 2.345127820496841278e-03
1.998300000000000000e+04 4.715824425297899802e-01 2.153902912324971719e-03
1.998320000000000073e+04 4.721169262882329853e-01 2.383165034790535926e-03
1.998339999999999782e+04 4.726876662415879782e-01 2.149025356604443177e-03
1.998359999999999854e+04 4.731141299840410097e-01 1.896407679286626208e-03
1.998379999999999927e+04 4.735683251221269874e-01 2.245967541269185044e-03
1.998400000000000000e+04 4.741560578223820155e-01 3.258616044380998212e-03
1.998420000000000073e+04 4.750774369437499867e-01 2.883746965756074469e-03
1.998439999999999782e+04 4.754922243141739835e-01 1.554149882029103513e-03
1.998459999999999854e+04 4.758001956639200114e-01 2.246223957056563223e-03
1.998479999999999927e+04 4.765342704495830195e-01 3.055204798616136929e-03
1.998500000000000000e+04 4.772154639892570160e-01 3.214817889881177448e-03
1.998520000000000073e+04 4.780231760533359964e-01 3.096690701573665081e-03
1.998539999999999782e+04 4.786498717784070100e-01 2.796036611451636726e-03
1.998559999999999854e+04 4.793188774947449993e-01 2.862320441727925300e-03
1.998579999999999927e+04 4.799761531730499797e-01 3.545880762082568010e-03
1.998600000000000000e+04 4.809605184957029822e-01 3.960853810752232133e-03
1.998620000000000073e+04 4.818092414148190117e-01 3.065864202513095011e-03
1.998639999999999782e+04 4.823807045222400225e-01 2.560825775979803497e-03
1.998659999999999854e+04 4.829964286633089965e-01 3.865690126013733921e-03
1.998679999999999927e+04 4.841698891299610064e-01 4.367490688122807781e-03
1.998700000000000000e+04 4.850171182648149726e-01 3.711175174418135034e-03
1.998720000000000073e+04 4.858877884789359891e-01 3.980038899494258570e-03
1.998739999999999782e+04 4.868590575206659943e-01 4.193520148302080745e-03
1.998759999999999854e+04 4.878282170130179840e-01 4.557740803622925378e-03
1.998779999999999927e+04 4.889675187492529829e-01 4.867397763628389558e-03
1.998800000000000000e+04 4.900795380508889965e-01 4.685833963962321783e-03
1.998820000000000073e+04 4.911350755798130074e-01 4.609505939081778338e-03
1.998839999999999782e+04 4.922118810529489963e-01 4.697366129544696713e-03
1.998859999999999854e+04 4.933079527589600000e-01 5.421593068464635595e-03
1.998879999999999927e+04 4.947188793265380191e-01 5.869239383537799663e-03
1.998900000000000000e+04 4.960214720395270116e-01 5.334808703204855368e-03
1.998920000000000073e+04 4.971858397535059981e-01 5.793652400094612652e-03
1.998939999999999782e+04 4.987001193700290047e-01 6.676265962726696777e-03
1.998959999999999854e+04 5.002716796277369982e-01 7.096998372135368723e-03
1.998979999999999927e+04 5.019800635581930237e-01 6.842477605534491060e-03
1.999000000000000000e+04 5.034342010130200551e-01 6.802061379864434917e-03
1.999020000000000073e+04 5.051239389737840479e-01 7.708931803912088404e-03
1.999039999999999782e+04 5.069964598417030510e-01 8.392218891770889672e-03
1.999059999999999854e+04 5.090014313533459678e-01 8.577067176572724175e-03
1.999079999999999927e+04 5.109592317212759971e-01 8.848014440504960165e-03
1.999100000000000000e+04 5.130892043775749922e-01 9.336267985799225760e-03
1.999120000000000073e+04 5.152722598418599809e-01 1.057444983013436368e-02
1.999139999999999782e+04 5.179734659757589954e-01 1.163599793917867442e-02
1.999159999999999854e+04 5.206462651887390214e-01 1.115951240903921733e-02
1.999179999999999927e+04 5.231276453838119567e-01 1.076901766866560778e-02
1.999200000000000000e+04 5.256202903895840217e-01 1.298226307071790112e-02
1.999220000000000073e+04 5.291227482831220019e-01 1.551396317735019396e-02
1.999239999999999782e+04 5.327833896238429734e-01 1.556307136124062719e-02
1.999259999999999854e+04 5.363085035099499631e-01 1.530473284840350862e-02
1.999279999999999927e+04 5.398499607359209529e-01 1.656249563667858485e-02
1.999300000000000000e+04 5.439553417410180058e-01 1.969020481717908069e-02
1.999320000000000073e+04 5.489397632621060286e-01 1.944888470686072235e-02
1.999339999999999782e+04 5.529338115687190136e-01 1.873539164720032513e-02
1.999359999999999854e+04 5.575890640557059630e-01 2.255143637130739218e-02
1.999379999999999927e+04 5.633436393064580328e-01 2.465365311238091120e-02
1.999400000000000000e+04 5.689687465730639548e-01 2.661186501606739932e-02
1.999420000000000073e+04 5.756267401713109910e-01 2.678208540646374522e-02
1.999439999999999782e+04 5.813303783789719459e-01 2.825646464597418583e-02
1.999459999999999854e+04 5.886685747957289827e-01 3.184889141733594775e-02
1.999479999999999927e+04 5.960295741150259952e-01 3.251014600402436089e-02
1.999500000000000000e+04 6.036728394187890201e-01 3.293434335475695779e-02
1.999520000000000073e+04 6.112295415978680202e-01 3.481382306320244396e-02
1.999539999999999782e+04 6.197399022598359952e-01 3.848741744374417628e-02
1.999559999999999854e+04 6.289914121144060122e-01 4.057521430602344797e-02
1.999579999999999927e+04 6.384649749650600503e-01 3.880476388725188214e-02
1.999600000000000000e+04 6.468996899729450023e-01 3.778833475832159283e-02
1.999620000000000073e+04 6.559043246538359684e-01 4.135987858334631145e-02
1.999639999999999782e+04 6.659867664547179933e-01 4.201663422528737618e-02
1.999659999999999854e+04 6.752943944406889498e-01 4.077169233892996569e-02
1.999679999999999927e+04 6.848024840280859671e-01 4.387910147551857959e-02
1.999700000000000000e+04 6.955437109120530259e-01 4.455784751456150911e-02
1.999720000000000073e+04 7.053649390437549682e-01 4.237461463529035993e-02
1.999739999999999782e+04 7.150989344648639445e-01 4.217725155352382294e-02
1.999759999999999854e+04 7.248291094123580081e-01 4.052621422510035293e-02
1.999779999999999927e+04 7.338014010506730411e-01 4.171889855581788903e-02
1.999800000000000000e+04 7.440818192609679471e-01 4.515665601582386640e-02
1.999820000000000073e+04 7.546401155383930526e-01 4.332638982231832442e-02
1.999839999999999782e+04 7.640761429770579483e-01 4.266653385246270414e-02
1.999859999999999854e+04 7.743300156174169890e-01 4.523947787002811222e-02
1.999879999999999927e+04 7.849530672124159780e-01 4.514413534279081847e-02
1.999900000000000000e+04 7.951629537099880185e-01 4.450691813832650945e-02
1.999920000000000073e+04 8.054920260309520463e-01 4.443373311694562289e-02
1.999939999999999782e+04 8.156681487201650205e-01 4.416007072769740499e-02
1.999959999999999854e+04 8.258709672771730181e-01 4.598089649941734108e-02
1.999979999999999927e+04 8.368871254125139769e-01 4.320905453440261612e-02
2.000000000000000000e+04 8.458111585210029704e-01 4.244785647642943666e-02
2.000020000000000073e+04 8.564761389873920550e-01 4.755099449121319433e-02
2.000039999999999782e+04 8.677544977453599540e-01 4.481330769745636017e-02
2.000059999999999854e+04 8.771564502041589995e-01 4.252421784973443170e-02
2.000079999999999927e+04 8.873787405339680356e-01 4.557264871260088140e-02
2.000100000000000000e+04 8.981870823459310316e-01 4.717315143948982992e-02
2.000120000000000073e+04 9.091477623903390093e-01 4.644895905086175031e-02
2.000139999999999782e+04 9.196219990474140404e-01 4.312115359464485653e-02
2.000159999999999854e+04 9.290474006572699839e-01 4.410151354029027970e-02
2.000179999999999927e+04 9.399739250165759508e-01 4.678555851556833595e-02
2.000200000000000000e+04 9.506376070554309887e-01 4.191592815699504704e-02
2.000220000000000073e+04 9.593175341985870075e-01 4.066395669559352138e-02
2.000239999999999782e+04 9.694036209389069736e-01 4.516523862408624440e-02
2.000259999999999854e+04 9.801602082605429533e-01 4.544607851814855964e-02
2.000279999999999927e+04 9.903758600969070347e-01 4.362402546191251895e-02
2.000300000000000000e+04 1.000291845766589915e+00 4.482399036214736870e-02
2.000320000000000073e+04 1.011061099746410008e+00 4.490935891611881614e-02
2.000339999999999782e+04 1.021016470079950000e+00 4.406721253335116328e-02
2.000359999999999854e+04 1.031397200993380059e+00 4.532828204512947406e-02
2.000379999999999927e+04 1.041934363998400004e+00 4.393039085121541731e-02
2.000400000000000000e+04 1.051670179747129952e+00 4.224711997481846171e-02
2.000420000000000073e+04 1.061430768066500052e+00 4.366816163348151425e-02
2.000439999999999782e+04 1.071822179414569920e+00 4.550853372599520524e-02
2.000459999999999854e+04 1.082431820847880033e+00 4.726448680385256229e-02
2.000479999999999927e+04 1.093633338714689929e+00 4.792929685039131610e-02
2.000500000000000000e+04 1.104549689341479901e+00 4.798615115930161129e-02
2.000520000000000073e+04 1.115777436864900052e+00 4.765563233155466205e-02
2.000539999999999782e+04 1.126541303088439916e+00 4.772946159628821405e-02
2.000559999999999854e+04 1.137803111640810050e+00 5.236675483798320513e-02
2.000579999999999927e+04 1.150706386673870041e+00 5.331927900280451077e-02
2.000600000000000000e+04 1.162407640929389974e+00 5.166684001494303846e-02
2.000620000000000073e+04 1.174548565525840083e+00 5.367160244732472468e-02
2.000639999999999782e+04 1.187174714150520005e+00 5.639816488523569787e-02
2.000659999999999854e+04 1.200573534548410093e+00 5.713738836276574529e-02
2.000679999999999927e+04 1.213540722900050106e+00 5.647070071719629408e-02
2.000700000000000000e+04 1.226631967876750107e+00 5.979323520342923887e-02
2.000720000000000073e+04 1.241132002908259979e+00 5.776971461293933796e-02
2.000739999999999782e+04 1.253289699465089946e+00 5.772401757901582386e-02
2.000759999999999854e+04 1.267768652233340010e+00 6.166022172512297672e-02
2.000779999999999927e+04 1.281742311117259892e+00 6.079996189000210632e-02
2.000800000000000000e+04 1.295824384202979962e+00 6.060511117548617738e-02
2.000820000000000073e+04 1.309708148979839892e+00 6.100823944686569605e-02
2.000839999999999782e+04 1.323976204734530038e+00 5.971599554128406012e-02
2.000859999999999854e+04 1.337263794576730058e+00 5.888714903424523139e-02
2.000879999999999927e+04 1.351149463144510010e+00 5.767815971612272330e-02
2.000900000000000000e+04 1.363879287440570076e+00 6.045779208128753551e-02
2.000920000000000073e+04 1.379047335547179953e+00 6.132586044576996548e-02
2.000939999999999782e+04 1.392177641979710057e+00 5.619279464092291621e-02
2.000959999999999854e+04 1.404977557292200085e+00 5.503215137990754430e-02
2.000979999999999927e+04 1.417572402565260070e+00 5.486141491005345344e-02
2.001000000000000000e+04 1.430293548844040030e+00 5.444276739643882923e-02
2.001020000000000073e+04 1.442695251666979983e+00 5.312780174446877363e-02
2.001039999999999782e+04 1.454809740364670034e+00 4.957075047191772388e-02
2.001059999999999854e+04 1.465570402513449944e+00 4.733241606239046995e-02
2.001079999999999927e+04 1.476652238734059930e+00 4.887357647320078602e-02
2.001100000000000000e+04 1.488123913102169960e+00 4.594821825785654068e-02
2.001120000000000073e+04 1.497856139364960093e+00 4.203487947329150043e-02
2.001139999999999782e+04 1.507522400308900057e+00 4.045223864355333016e-02
2.001159999999999854e+04 1.516524477418589978e+00 3.789339078886631157e-02
2.001179999999999927e+04 1.525010217451749917e+00 3.558727044638153314e-02
2.001200000000000000e+04 1.532948369137939970e+00 3.250935522184997262e-02
2.001220000000000073e+04 1.540014117248549974e+00 2.985031772141179957e-02
2.001239999999999782e+04 1.546725525669470080e+00 2.680575671857616388e-02
2.001259999999999854e+04 1.552386669781490092e+00 2.394859361024850863e-02
2.001279999999999927e+04 1.557779929962799903e+00 2.285642102473545503e-02
2.001300000000000000e+04 1.562937201766350093e+00 2.016557997207421224e-02
2.001320000000000073e+04 1.567089046157779997e+00 1.616060743575529340e-02
2.001339999999999782e+04 1.570398629432909976e+00 1.278106139014753215e-02
2.001359999999999854e+04 1.572991324940590019e+00 9.879246988567656068e-03
2.001379999999999927e+04 1.574962160163799973e+00 7.015580393123234913e-03
2.001400000000000000e+04 1.576233707056990063e+00 4.877801582203485260e-03
2.001420000000000073e+04 1.577218280988949894e+00 2.073970711407518031e-03
2.001439999999999782e+04 1.577196284396269910e+00 -8.447819241729240215e-04
2.001459999999999854e+04 1.576834295845489953e+00 -2.960777839445036860e-03
2.001479999999999927e+04 1.575836087470269931e+00 -4.961299683156609151e-03
2.001500000000000000e+04 1.574551160939809957e+00 -6.322400377721007839e-03
2.001520000000000073e+04 1.572925010645769950e+00 -7.821147716490442145e-03
2.001539999999999782e+04 1.570948639108010081e+00 -9.227305559790349374e-03
2.001559999999999854e+04 1.568673759842039939e+00 -1.081844336105203253e-02
2.001579999999999927e+04 1.565963319085099892e+00 -1.188853069713979166e-02
2.001600000000000000e+04 1.563194756509870054e+00 -1.312070174870089839e-02
2.001620000000000073e+04 1.559915855346200031e+00 -1.269308891527919265e-02
2.001639999999999782e+04 1.557344571359009944e+00 -1.159435657741540900e-02
2.001659999999999854e+04 1.554572568836460000e+00 -1.288187652020965530e-02
