# energy mu dmude
1.141386852999999974e+04 -2.738770516425059753e-01 -7.176044635090489008e-05
1.141902453000000060e+04 -2.772061864781020235e-01 -6.027283533362850961e-05
1.142401504999999997e+04 -2.801799516445619975e-01 -3.635874427259804019e-05
1.142906677999999920e+04 -2.829322757856769788e-01 -2.794096481330189690e-05
1.143406622000000061e+04 -2.857307287593769951e-01 -3.514155872832103666e-05
1.143901320999999916e+04 -2.885779153074650161e-01 -2.814531771266948256e-05
1.144413536999999997e+04 -2.912958226091409975e-01 -2.692993122904279376e-05
1.144897724000000017e+04 -2.940590899492290244e-01 -2.592642733697922400e-05
1.145410845999999947e+04 -2.967606424564169787e-01 -1.872507463846652393e-05
1.145895890999999938e+04 -2.993753488185770251e-01 -1.933338499957147169e-05
1.146415636000000086e+04 -3.021252078031990140e-01 -1.105679777801378964e-05
1.146907264000000032e+04 -3.045965842177439931e-01 -5.949159495927791468e-06
1.147393597000000045e+04 -3.070674504358870127e-01 1.437796714364920179e-06
1.147903263999999945e+04 -3.094731178521870074e-01 5.364839457513638401e-06
1.148413392000000022e+04 -3.119750991760469883e-01 2.076993640626583886e-05
1.148901022000000012e+04 -3.139469921082829740e-01 4.362421978419336877e-05
1.149394817999999941e+04 -3.158975044328840021e-01 6.093202119237073973e-05
1.149894793000000027e+04 -3.175520056652459955e-01 8.048072699559581894e-05
1.150383702000000085e+04 -3.190726146945450092e-01 1.114664512217479470e-04
1.150896070999999938e+04 -3.201054030813499929e-01 1.603064759110257094e-04
1.151385844999999972e+04 -3.205846421016980141e-01 2.163103725516338509e-04
1.151881811000000016e+04 -3.204156204272259889e-01 2.989769609339477615e-04
1.152401310999999987e+04 -3.191143758030030031e-01 4.290046563839421817e-04
1.152898165999999947e+04 -3.161263345187370066e-01 6.289285472949572445e-04
1.153401241999999911e+04 -3.106320134636539887e-01 7.526526536627259735e-04
1.153447523999999976e+04 -3.100169596445230269e-01 8.930799012728015806e-04
1.153505381999999918e+04 -3.091620711251890086e-01 9.481158958177015109e-04
1.153557459000000017e+04 -3.083362171032760224e-01 9.963005494533995390e-04
1.153603753999999935e+04 -3.075570451289970086e-01 1.104026409888483537e-03
1.153644265000000087e+04 -3.067205175814999851e-01 1.106823245469593922e-03
1.153702143000000069e+04 -3.057198867569629885e-01 1.168222921126240831e-03
1.153748450000000048e+04 -3.046387417397710129e-01 1.218719222546468285e-03
1.153806338999999934e+04 -3.035257075947889738e-01 1.224665489807656238e-03
1.153846863999999914e+04 -3.025538437563730088e-01 1.475525993371246038e-03
1.153898972999999933e+04 -3.010677844187680252e-01 1.492543920390253633e-03
1.153956876999999986e+04 -2.995948732988280017e-01 1.461654189137692435e-03
1.153997413000000051e+04 -2.984849219719479807e-01 1.603902713501011244e-03
1.154049536000000080e+04 -2.968826616139080277e-01 1.638891608168851610e-03
1.154090078999999969e+04 -2.957033749860030203e-01 1.656330641679988787e-03
1.154153794999999991e+04 -2.937143622831410172e-01 1.782867283799400909e-03
1.154205931000000055e+04 -2.918702154985339803e-01 1.935796764606963725e-03
1.154263867000000027e+04 -2.897135330736170244e-01 2.075167558906902687e-03
1.154292836999999963e+04 -2.884531599763119902e-01 2.134922769604114846e-03
1.154356575999999950e+04 -2.859501914793179944e-01 2.269993641525702883e-03
1.154397140000000036e+04 -2.839187983793730052e-01 2.522431557313147346e-03
1.154449299000000065e+04 -2.814201780048919965e-01 2.583968984611013670e-03
1.154507258999999976e+04 -2.783944133517000097e-01 2.755667221337047487e-03
1.154553631999999925e+04 -2.758041120724569750e-01 2.994579855416056816e-03
1.154600007999999980e+04 -2.729294322920909899e-01 3.160361057021489513e-03
1.154646387999999934e+04 -2.700108530304369814e-01 3.378185914945899121e-03
1.154698569999999927e+04 -2.663157906262830221e-01 3.555272388010126145e-03
1.154762354000000050e+04 -2.617915205034540005e-01 3.615088625132442581e-03
1.154802947999999924e+04 -2.587846608246580082e-01 4.020249772241100104e-03
1.154860944000000018e+04 -2.538263239227300239e-01 4.377255271600996936e-03
1.154895744999999988e+04 -2.505811252463410188e-01 4.837522160841077785e-03
1.154953750000000036e+04 -2.447112320879450131e-01 5.204891847186141236e-03
1.155000158999999985e+04 -2.395080719561399896e-01 5.742060302515780007e-03
1.155052373000000080e+04 -2.331227570473810018e-01 6.106555657803026081e-03
1.155104593000000023e+04 -2.264251690471220102e-01 6.642433150405193179e-03
1.155151014000000032e+04 -2.196385230439469871e-01 7.223013830738275395e-03
1.155203241999999955e+04 -2.117186781895440129e-01 7.745761798014140324e-03
1.155261278999999922e+04 -2.019713405125780070e-01 8.800986202333004743e-03
1.155296104000000014e+04 -1.947505845771710098e-01 9.866707682327162388e-03
1.155359955000000082e+04 -1.816986942373060021e-01 1.005741174900099712e-02
1.155400591999999961e+04 -1.728590237975660138e-01 1.173144190709237041e-02
1.155458648999999969e+04 -1.574983756364330134e-01 1.268668284478826486e-02
1.155505098999999973e+04 -1.451048099576149886e-01 1.411500612496359094e-02
1.155557359999999971e+04 -1.282772724263989972e-01 1.668975415858890352e-02
1.155603817999999956e+04 -1.104619043955169938e-01 1.928552361107421786e-02
1.155650279000000046e+04 -9.052705306679589836e-02 2.124487164979870640e-02
1.155702553000000080e+04 -6.622403395955410443e-02 2.525501739403946538e-02
1.155754831999999988e+04 -3.474290929460609884e-02 2.872622963657439632e-02
1.155795497000000069e+04 -9.754928440623509417e-03 3.169626339178833324e-02
1.155847783999999956e+04 2.761730508993770136e-02 3.766813418142867659e-02
1.155905887000000075e+04 7.836009752977489418e-02 4.371841935008568408e-02
1.155958185000000049e+04 1.299829911029760088e-01 5.187846061854100438e-02
1.156004674999999952e+04 1.871456032235979949e-01 6.426611274125569595e-02
1.156045357999999942e+04 2.490024999585689902e-01 7.605180627336607935e-02
1.156097667999999976e+04 3.374794305052030152e-01 9.066824311988286311e-02
1.156155796999999984e+04 4.619575300659949924e-01 1.098402649364648015e-01
1.156202303000000029e+04 5.820152173379999905e-01 1.337549765582289607e-01
1.156260441999999966e+04 7.598750003114730367e-01 1.657877716231028198e-01
1.156306957999999941e+04 9.514393026280040244e-01 1.969413992515074707e-01
1.156341847000000053e+04 1.101301090903120006e+00 2.047747487702166747e-01
1.156411630999999943e+04 1.407937633057380067e+00 2.098953508207692664e-01
1.156452342999999928e+04 1.595258455471709969e+00 2.177013000121692243e-01
1.156504690999999912e+04 1.839438151109920039e+00 2.072603827025360501e-01
1.156557042999999976e+04 2.057423379287460108e+00 1.712717342615003857e-01
1.156603583000000071e+04 2.200082385867490053e+00 1.062087362974144522e-01
1.156655945000000065e+04 2.280902978880179788e+00 4.522533512942285283e-02
1.156702491999999984e+04 2.294970416041360206e+00 -4.390042157949216456e-03
1.156743224999999984e+04 2.272303349427470032e+00 -4.180183962319042323e-02
1.156807238999999936e+04 2.201095510935870081e+00 -5.676512298350365471e-02
1.156847977999999966e+04 2.145002652746660132e+00 -6.406529943111968772e-02
1.156912003999999979e+04 2.057473457956719987e+00 -6.506376817234788001e-02
1.156952750999999989e+04 1.999139132152720100e+00 -6.266393841890277594e-02
1.156999323000000004e+04 1.940377097845350063e+00 -5.545198596403677627e-02
1.157045898999999918e+04 1.888549335583030064e+00 -4.539793685397713191e-02
1.157104124000000047e+04 1.838418253073180075e+00 -3.653292744617633175e-02
1.157156531999999970e+04 1.801828015424689955e+00 -3.214864753983612961e-02
1.157214768000000004e+04 1.762031264592810009e+00 -3.073005400974710213e-02
1.157243888999999945e+04 1.744160280324069889e+00 -2.606897831746598365e-02
1.157302133999999933e+04 1.713040133746110083e+00 -2.328952027419581641e-02
1.157360384999999951e+04 1.685738108642989896e+00 -2.112046431738109561e-02
1.157395339000000058e+04 1.670608791858060105e+00 -1.592555885140123362e-02
1.157459425999999985e+04 1.651620056050469909e+00 -1.211571063592835167e-02
1.157506040000000030e+04 1.641466496997439961e+00 -7.668053360599819297e-03
1.157546829000000071e+04 1.636899516980349967e+00 -2.238771796569131479e-03
1.157610934000000088e+04 1.635942692468929982e+00 1.024903544109992707e-03
1.157645902999999998e+04 1.638576417970069921e+00 5.940096949839956432e-03
1.157704189000000042e+04 1.647294176805560006e+00 8.965097358730083829e-03
1.157756652000000031e+04 1.659200413455879985e+00 1.190801596800161559e-02
1.157803290000000015e+04 1.671967392487099913e+00 1.337494501585062903e-02
1.157861592000000019e+04 1.688609594418589932e+00 1.346302795387389201e-02
1.157896575999999914e+04 1.698285765185219898e+00 1.280881914184500876e-02
1.157949056999999993e+04 1.712065687570569983e+00 1.073199696526300033e-02
1.158007373999999982e+04 1.723092979880729958e+00 7.683536187192392154e-03
1.158048199999999997e+04 1.727819312854079969e+00 2.788764635157488236e-03
1.158100693999999930e+04 1.728182089738000027e+00 -2.453331430952735738e-03
1.158159027000000060e+04 1.721476066868820043e+00 -6.892626462896078027e-03
1.158194030000000021e+04 1.714005457558900103e+00 -1.202849346787270360e-02
1.158252371999999923e+04 1.697076363963500034e+00 -1.522377924437648584e-02
1.158304886000000079e+04 1.677476065330580024e+00 -1.628609287218688376e-02
1.158351568000000043e+04 1.662142382929429951e+00 -1.557226221882934171e-02
1.158398255000000063e+04 1.646015259183069901e+00 -1.400407799886937976e-02
1.158456617999999980e+04 1.630258110310349950e+00 -1.142419807760964960e-02
1.158497475999999915e+04 1.621358026168880029e+00 -7.914035901223488018e-03
1.158550012000000061e+04 1.614038732525820086e+00 -4.970831974975078310e-03
1.158596714000000065e+04 1.610351287500290107e+00 -2.186179953508156880e-03
1.158649258999999984e+04 1.608923593185650036e+00 -2.316038010223088516e-04
1.158701808999999957e+04 1.609314533459260010e+00 1.328843177906118998e-03
1.158754363999999987e+04 1.611383702015179997e+00 2.888770969770716995e-03
1.158801082999999926e+04 1.614940019370890045e+00 4.549639442558191769e-03
1.158853646999999910e+04 1.620525533795480033e+00 6.405241339590608124e-03
1.158900374000000011e+04 1.628010964715810083e+00 9.182425198759842921e-03
1.158947105999999985e+04 1.638362802900110049e+00 1.198579407753438443e-02
1.159005524999999943e+04 1.654364828341210014e+00 1.446273118291754173e-02
1.159052265000000079e+04 1.670272339208169976e+00 1.793153651434373913e-02
1.159099008999999933e+04 1.689645793021510078e+00 2.008747300692909424e-02
1.159151599999999962e+04 1.712327696562490065e+00 2.106813155430864795e-02
1.159204196000000047e+04 1.736378075884789984e+00 2.235859372337212908e-02
1.159250951999999961e+04 1.759201250481529977e+00 2.165578783428789844e-02
1.159303557000000001e+04 1.781766961279430017e+00 1.959798554827400091e-02
1.159344476000000031e+04 1.797820335904759981e+00 1.591403667946605233e-02
1.159397090000000026e+04 1.813042985071420032e+00 1.116266426042616423e-02
1.159449707999999919e+04 1.822347637723459979e+00 5.958522382889883812e-03
1.159496485000000030e+04 1.825180910360920006e+00 2.935052821637219151e-04
1.159549113000000034e+04 1.822479966544060082e+00 -4.538012450617271917e-03
1.159601744999999937e+04 1.814477635283080037e+00 -8.497931969085872547e-03
1.159648533999999927e+04 1.803976155057160025e+00 -1.174972918482595184e-02
1.159701175999999941e+04 1.789078082595479957e+00 -1.349090042354577496e-02
1.159753823000000011e+04 1.773171386475919986e+00 -1.368566213015628280e-02
1.159806473999999980e+04 1.757833418433069950e+00 -1.411703104567959763e-02
1.159847429000000011e+04 1.744535107546000052e+00 -1.383362215682710714e-02
1.159900088999999934e+04 1.729760074716240048e+00 -1.248162435897786325e-02
1.159946902000000046e+04 1.717572537071420102e+00 -1.099797167986907298e-02
1.160005423999999948e+04 1.704540726019470043e+00 -9.064499612537583323e-03
1.160052246000000014e+04 1.696693796973040014e+00 -7.302175669579157036e-03
1.160110778000000028e+04 1.687618728025680026e+00 -6.501161409885766046e-03
1.160140047000000050e+04 1.684090708652739909e+00 -4.600695260129974117e-03
1.160204442999999992e+04 1.677969298144849963e+00 -3.871361674822590849e-03
1.160251281000000017e+04 1.674361054414660099e+00 -3.371598584963729755e-03
1.160292266999999993e+04 1.671223147632850070e+00 -3.301125929636328660e-03
1.160350825000000077e+04 1.666864212118779998e+00 -4.509898953622409369e-03
1.160526532000000043e+04 1.647542530814180006e+00 -5.354133541083413821e-03
1.160649560000000019e+04 1.631289319435309970e+00 -4.992374540331324766e-03
1.160790194999999949e+04 1.618177891881219965e+00 -2.586144376955888235e-03
1.160895694000000003e+04 1.616504704516930069e+00 1.849101708444897928e-03
1.161042252999999982e+04 1.626873618635799934e+00 5.086373975132157249e-03
1.161165391000000091e+04 1.644424418866760051e+00 7.709709330869755559e-03
1.161300288000000000e+04 1.668018863170690036e+00 8.901357591629585966e-03
1.161441083000000071e+04 1.695389897892700004e+00 9.458093561249453912e-03
1.161587781999999970e+04 1.724578792657120108e+00 9.366805063446658267e-03
1.161716907999999967e+04 1.749117266110030045e+00 8.050734555689765398e-03
1.161863676999999916e+04 1.770578004951000040e+00 5.595233074304642104e-03
1.162004610999999932e+04 1.782022485880720097e+00 2.058995960078368898e-03
1.162157329000000027e+04 1.782022850718389950e+00 -1.205211220171907918e-03
1.162310087000000021e+04 1.772667672279530038e+00 -3.117529763876995472e-03
1.162451130999999987e+04 1.761046183250589925e+00 -3.763315210872213070e-03
1.162615725999999995e+04 1.746637489860799919e+00 -3.766171771277952544e-03
1.162774488000000019e+04 1.733487327566950009e+00 -3.579612558781582882e-03
1.162915646000000015e+04 1.722269107645489905e+00 -3.223111240062973698e-03
1.163080374999999913e+04 1.710959223509749938e+00 -2.707841024896095496e-03
1.163233380000000034e+04 1.702359227859580049e+00 -2.159578786459712130e-03
1.163409974999999940e+04 1.694158750784769962e+00 -2.161944793699667900e-03
1.163574846000000070e+04 1.684936691824610033e+00 -3.003261269162263349e-03
1.163739763999999923e+04 1.671416200149149933e+00 -4.016217964597421780e-03
1.163910621999999967e+04 1.654529252242229909e+00 -4.674935533992826374e-03
1.164087426000000050e+04 1.635049512395220006e+00 -4.671724188099382787e-03
1.164258388000000014e+04 1.618175497540730090e+00 -3.968603364495454019e-03
1.164429400999999962e+04 1.604427878012870012e+00 -2.899973132856934355e-03
1.164612263999999959e+04 1.594551212903720039e+00 -1.886773999601396891e-03
1.164783381999999983e+04 1.588443621245809956e+00 -9.559997104103449368e-04
1.164966358000000037e+04 1.585589038853379984e+00 1.100779294170241198e-04
1.165137581999999929e+04 1.587529876007770069e+00 1.629760416975041364e-03
1.165332486000000063e+04 1.596507788263380023e+00 3.214755591770790052e-03
1.165515637000000061e+04 1.611580505878299929e+00 4.399863075973496108e-03
1.165698847000000023e+04 1.629071807294079965e+00 4.626261462295246790e-03
1.165899854000000050e+04 1.647586333850320051e+00 4.153098733711736365e-03
1.166095016000000032e+04 1.662200910772239970e+00 3.100036947115451195e-03
1.166284326999999939e+04 1.671104843684509955e+00 1.753685025925297986e-03
1.166467782000000079e+04 1.674302565822539890e+00 5.837600560743196748e-04
1.166663138000000072e+04 1.673953459262830012e+00 -2.054422366725062348e-04
1.166876327999999921e+04 1.670500180031599946e+00 -6.573987226598387726e-04
1.167071822000000066e+04 1.666211544193850091e+00 -8.240376513976977292e-04
1.167261455999999998e+04 1.661836139714190086e+00 -9.419666966550945333e-04
1.167486727000000064e+04 1.655834376115209894e+00 -9.310388504975145637e-04
1.167688359999999921e+04 1.651258333220720020e+00 -5.844091665371092250e-04
1.167895997999999963e+04 1.648718268924940000e+00 3.028643323960786919e-05
1.168097774000000027e+04 1.649505623328280102e+00 7.758985568552521396e-04
1.168323372999999992e+04 1.653682902157590062e+00 1.290615479011124334e-03
1.168531240000000071e+04 1.659298109431500023e+00 1.409748618565098829e-03
1.168751065999999992e+04 1.664431353247320056e+00 9.650389775233797181e-04
1.168965032000000065e+04 1.666086666992200094e+00 1.111422632398897530e-04
1.169173129999999946e+04 1.663352114274710081e+00 -9.534672989968354800e-04
1.169405099999999948e+04 1.654972239096260012e+00 -1.976411001789823898e-03
1.169631211000000076e+04 1.641791666346299916e+00 -2.930770728256997318e-03
1.169851457999999911e+04 1.624880878958600006e+00 -3.615310837845216001e-03
1.170083700999999928e+04 1.604682622362529898e+00 -3.806268910393643089e-03
1.170304119999999966e+04 1.585914707121250045e+00 -3.262758439525463919e-03
1.170536546000000089e+04 1.570948481485330062e+00 -2.170927872233773502e-03
1.170763100999999915e+04 1.562408322023590035e+00 -8.830478481412481822e-04
1.171007642999999916e+04 1.559757709144079962e+00 2.859811112766097647e-04
1.171234383999999955e+04 1.562960091690470010e+00 1.323222760517169623e-03
1.171473155000000042e+04 1.570597791848540092e+00 1.923172388665852443e-03
1.171712024000000019e+04 1.580192489132119960e+00 2.166799841888335590e-03
1.171950993000000017e+04 1.590319467610040061e+00 2.191398851313798753e-03
1.172190061000000060e+04 1.600173103137519925e+00 1.998163681001008038e-03
1.172435207000000082e+04 1.608563267239200067e+00 1.591593624526311179e-03
1.172704391000000032e+04 1.615093016369280043e+00 1.300342451429045742e-03
1.172931798999999955e+04 1.619884831110599999e+00 1.086405413634153978e-03
1.173183249000000069e+04 1.623825976776319902e+00 7.946246782346099271e-04
1.173434807999999975e+04 1.625928908512020099e+00 3.444649700655687263e-04
1.173710452000000078e+04 1.625100620590310019e+00 -1.153874767355586210e-04
1.173956243999999970e+04 1.622077054407760066e+00 -3.597754805308938882e-04
1.174208139999999912e+04 1.618830876810499975e+00 -2.052685866810995217e-04
1.174478149999999914e+04 1.617221546080070071e+00 2.530304217558767589e-04
1.174742281999999977e+04 1.619080974252530059e+00 8.821359361323034397e-04
1.175012542000000030e+04 1.624639825004140059e+00 1.256271509658928769e-03
1.175276916999999958e+04 1.630767487130780014e+00 1.057965040629443723e-03
1.175559452000000056e+04 1.634282211514539895e+00 2.321856142610470434e-04
1.175824078000000009e+04 1.630780498332730089e+00 -1.201192985747139962e-03
1.176100861000000077e+04 1.617748635327749929e+00 -2.517768653056125325e-03
1.176371754999999939e+04 1.598681442002880093e+00 -3.087034438604471104e-03
1.176648799999999937e+04 1.578983547864369896e+00 -2.781356080477300624e-03
1.176932005000000026e+04 1.562696834300169924e+00 -2.067061070552064870e-03
1.177215346999999929e+04 1.551222921433820012e+00 -1.317729749098955081e-03
1.177510894999999982e+04 1.543580268722589910e+00 -8.283117621289600710e-04
1.177782447999999931e+04 1.538413441362129985e+00 -5.298612039440872730e-04
1.178060167999999976e+04 1.534668738254379994e+00 -2.662971028631596422e-04
1.178362188000000060e+04 1.532265509084359989e+00 -5.542999891673031207e-05
1.178652275000000009e+04 1.531051777577050022e+00 1.003998195104960567e-04
1.178930409999999938e+04 1.530682388093850044e+00 2.287756189588601493e-04
1.179232883000000038e+04 1.531023370252589944e+00 4.439234072039673074e-04
1.179517351000000053e+04 1.533346134223600110e+00 8.381972082641181345e-04
1.179832243999999992e+04 1.538782024475360055e+00 1.291365396148747100e-03
1.180117005000000063e+04 1.546902582886970023e+00 1.768029199000986217e-03
1.180432222999999976e+04 1.558443529292889984e+00 2.060549586186101022e-03
1.180729411000000073e+04 1.570790890649369942e+00 2.091135533105474738e-03
1.181038890999999967e+04 1.582503645198839903e+00 1.792035470202651753e-03
1.181336390000000029e+04 1.590992470249120050e+00 1.147206215799322429e-03
1.181658345000000008e+04 1.594603702160710013e+00 3.566260257850826436e-04
1.181962239000000045e+04 1.592667893068629992e+00 -4.403511577351794230e-04
1.182272374999999920e+04 1.585813410416770042e+00 -1.089887486211128754e-03
