# energy mu dmude
1.782459002200000032e+04 3.866077192833010101e-01 -5.130801157959607789e-05
1.782959002200000032e+04 3.868027737177550107e-01 -4.038467358625517153e-05
1.783459002200000032e+04 3.871230974172900074e-01 -2.404640143745834805e-05
1.783959002200000032e+04 3.875055197923880090e-01 -2.201585893784315185e-05
1.784459002200000032e+04 3.878491298323070158e-01 -2.329861417629150954e-05
1.784959002200000032e+04 3.882168415204250156e-01 -1.987537892753762431e-05
1.785459002200000032e+04 3.885997093553579806e-01 -1.921681796061429403e-05
1.785959002200000032e+04 3.889749734462660258e-01 -2.099405913939657531e-05
1.786459002200000032e+04 3.893374598102170014e-01 -2.330267884178652293e-05
1.786959002200000032e+04 3.896862485605609994e-01 -2.126939850492987668e-05
1.787459002200000032e+04 3.900720526625199858e-01 7.043174512076693373e-06
1.787959002200000032e+04 3.907455311017259958e-01 2.287622847577918189e-05
1.788459002200000032e+04 3.913129092825269884e-01 -1.662350883006288988e-06
1.788959002200000032e+04 3.917049783389709994e-01 -7.012172803370599877e-06
1.789459002200000032e+04 3.922110045538539924e-01 -2.870563740990433360e-06
1.789959002200000032e+04 3.926505697441550202e-01 -4.929322338201953726e-06
1.790459002200000032e+04 3.931329860353490191e-01 4.048887988084759395e-05
1.790959002200000032e+04 3.940934089356969983e-01 6.062438478314256465e-05
1.791459002200000032e+04 3.948067399804839894e-01 -1.149823708348107599e-05
1.791959002200000032e+04 3.949400578473289958e-01 -2.438126199495992277e-05
1.792459002200000032e+04 3.955056458612160042e-01 2.835853990928621611e-05
1.792959002200000032e+04 3.962437858281450120e-01 5.161631215513713558e-05
1.793459002200000032e+04 3.970760948789929801e-01 9.459350296562103646e-05
1.793959002200000032e+04 3.983070989421679808e-01 2.505668256203210514e-04
1.794459002200000032e+04 4.009281161253749892e-01 2.887584497659208662e-04
1.794959002200000032e+04 4.025971032201000055e-01 7.822658131184258138e-05
1.795459002200000032e+04 4.028037327451159944e-01 3.609485269694401581e-05
1.795959002200000032e+04 4.039895515369469892e-01 1.904710909160548492e-04
1.796459002200000032e+04 4.059665737678799791e-01 2.930850288628310740e-04
1.796779999999999927e+04 4.075523713688140037e-01 3.709086537502226106e-04
1.796879999999999927e+04 4.081692788888390266e-01 4.455386936427015339e-04
1.796979999999999927e+04 4.087699646116659813e-01 4.172927791197475478e-04
1.797079999999999927e+04 4.093220870823590096e-01 4.592825803190394435e-04
1.797179999999999927e+04 4.100190809399399949e-01 5.336573313335143259e-04
1.797279999999999927e+04 4.107417899182709831e-01 6.041338250050700895e-04
1.797379999999999927e+04 4.116004292101160256e-01 6.793720343084650587e-04
1.797479999999999927e+04 4.124957051307350242e-01 5.791308998414746280e-04
1.797500000000000000e+04 4.125148300300000015e-01 7.300306236763419096e-04
1.797520000000000073e+04 4.128697263601789902e-01 1.062940864496734247e-03
1.797539999999999782e+04 4.130415643631850098e-01 6.739309295900009975e-04
1.797559999999999854e+04 4.132180134506460156e-01 7.827822404048443480e-04
1.797579999999999927e+04 4.134397838963470018e-01 9.508914557554137012e-04
1.797600000000000000e+04 4.136933483046860149e-01 6.198271743176454827e-04
1.797620000000000073e+04 4.137632524280019930e-01 5.983647191896975881e-04
1.797639999999999782e+04 4.140069715455220178e-01 1.410016550101329987e-03
1.797659999999999854e+04 4.144491978598069948e-01 1.288230339975676318e-03
1.797679999999999927e+04 4.146370510174999802e-01 4.110769029651996473e-04
1.797700000000000000e+04 4.146769081421289860e-01 2.308424834036018798e-04
1.797720000000000073e+04 4.147820838863989779e-01 4.199571823327248642e-04
1.797739999999999782e+04 4.149086920000200074e-01 8.525946118851596492e-04
1.797759999999999854e+04 4.152123278592450006e-01 1.852543421042981411e-03
1.797779999999999927e+04 4.157976340467319787e-01 1.413694152892905429e-03
1.797800000000000000e+04 4.158999602867319845e-01 1.625919057782789217e-04
1.797820000000000073e+04 4.159113589044510229e-01 1.154222472653572201e-03
1.797839999999999782e+04 4.164685674612629840e-01 1.613685767488809170e-03
1.797859999999999854e+04 4.166907317966059843e-01 6.232334531935607505e-04
1.797879999999999927e+04 4.167935985264650256e-01 1.410375938519949860e-03
1.797900000000000000e+04 4.173768420876319829e-01 1.409470327967740329e-03
1.797920000000000073e+04 4.174792933944089790e-01 5.843462898051146040e-04
1.797939999999999782e+04 4.176840347727249769e-01 9.223180399684494362e-04
1.797959999999999854e+04 4.179415210066890207e-01 9.591498052324686635e-04
1.797979999999999927e+04 4.181631579096889983e-01 1.434672079899050167e-03
1.798000000000000000e+04 4.186387764614979967e-01 1.646136971827270434e-03
1.798020000000000073e+04 4.189574168688059985e-01 7.156051612443421143e-04
1.798039999999999782e+04 4.190061804203629725e-01 6.893556211100592204e-04
1.798059999999999854e+04 4.193127795977710237e-01 2.201732135969007836e-03
1.798079999999999927e+04 4.200553028577950210e-01 2.094086432273351873e-03
1.798100000000000000e+04 4.203125226304850193e-01 3.344909361628684214e-04
1.798120000000000073e+04 4.202478815062419826e-01 1.023076330672609236e-03
1.798139999999999782e+04 4.208209702426770060e-01 2.361452644388543388e-03
1.798159999999999854e+04 4.213702711838440140e-01 2.009279264986888001e-03
1.798179999999999927e+04 4.217818103996360257e-01 1.652158700415377749e-03
1.798200000000000000e+04 4.221672924396699944e-01 8.210694537403238598e-04
1.798220000000000073e+04 4.221975931028820184e-01 1.674866009495170390e-04
1.798239999999999782e+04 4.222832625995739941e-01 2.407050856605049902e-03
1.798259999999999854e+04 4.233408996633519772e-01 3.502271481840525755e-03
1.798279999999999927e+04 4.239289704696500016e-01 1.450800321890232704e-03
1.798300000000000000e+04 4.240455534904259971e-01 6.349258822050681634e-04
1.798320000000000073e+04 4.242593651040840186e-01 1.168750485568417806e-03
1.798339999999999782e+04 4.246208249776500243e-01 1.804196879370722172e-03
1.798359999999999854e+04 4.251261295499549897e-01 2.446764263629699811e-03
1.798379999999999927e+04 4.257823489340030187e-01 2.555045085841223165e-03
1.798400000000000000e+04 4.263373242535800078e-01 1.905643321561164465e-03
1.798420000000000073e+04 4.266956490497150201e-01 9.730657331616567735e-04
1.798439999999999782e+04 4.268228309266550169e-01 1.565955690710836784e-03
1.798459999999999854e+04 4.274531271267730248e-01 2.839911913282377760e-03
1.798479999999999927e+04 4.281647001846750067e-01 2.968304563840335267e-03
1.798500000000000000e+04 4.288538928612620205e-01 2.420931612965049676e-03
1.798520000000000073e+04 4.293143741473139929e-01 1.623552835638614623e-03
1.798539999999999782e+04 4.296377919902740206e-01 1.764142794846373409e-03
1.798559999999999854e+04 4.301627649211999804e-01 2.859024368290408961e-03
1.798579999999999927e+04 4.309884285433979723e-01 3.325044294712991080e-03
1.798600000000000000e+04 4.317271748601950176e-01 3.221899360203126731e-03
1.798620000000000073e+04 4.325055236775199874e-01 2.387680448051435894e-03
1.798639999999999782e+04 4.328615957967090200e-01 1.655495594902775796e-03
1.798659999999999854e+04 4.333040756387709913e-01 2.954259870937081013e-03
1.798679999999999927e+04 4.342559189278130116e-01 3.300361020888394666e-03
1.798700000000000000e+04 4.348571628279849777e-01 3.730727751554542213e-03
1.798720000000000073e+04 4.360064246134570110e-01 3.636400760092596638e-03
1.798739999999999782e+04 4.365643986892980277e-01 2.966405869966849511e-03
1.798759999999999854e+04 4.374063193761250079e-01 2.632816955583586714e-03
1.798779999999999927e+04 4.378112690260400064e-01 3.750555462672405631e-03
1.798800000000000000e+04 4.391659204602689770e-01 4.990077017296553827e-03
1.798820000000000073e+04 4.401394653666709789e-01 3.427284965880717047e-03
1.798839999999999782e+04 4.407772303990349916e-01 2.637805078813337378e-03
1.798859999999999854e+04 4.413886238630519987e-01 4.100348298617386214e-03
1.798879999999999927e+04 4.426972889972329850e-01 5.418483621677319846e-03
1.798900000000000000e+04 4.439133395479329947e-01 4.708550667485634188e-03
1.798920000000000073e+04 4.448963431325659856e-01 4.501662707857794973e-03
1.798939999999999782e+04 4.460174897164460028e-01 4.795453852673792552e-03
1.798959999999999854e+04 4.471352616322269991e-01 5.267479621662441401e-03
1.798979999999999927e+04 4.484729366114469928e-01 5.865121523368748563e-03
1.799000000000000000e+04 4.498648597504320001e-01 5.437656050245991309e-03
1.799020000000000073e+04 4.510064471025970190e-01 4.858904339465506747e-03
1.799039999999999782e+04 4.521328843561360222e-01 5.286149481379431511e-03
1.799059999999999854e+04 4.534704582646790216e-01 6.452097196510823626e-03
1.799079999999999927e+04 4.551317408685789934e-01 8.901914676400364893e-03
1.799100000000000000e+04 4.575930988639150265e-01 8.699615874306232399e-03
1.799120000000000073e+04 4.591615826464999772e-01 5.730231655424512099e-03
1.799139999999999782e+04 4.602608200919560133e-01 6.264907605092891706e-03
1.799159999999999854e+04 4.620745712582359777e-01 8.054535223154520723e-03
1.799179999999999927e+04 4.639947494697029828e-01 1.039042374348235140e-02
1.799200000000000000e+04 4.668800230531490181e-01 1.145798794851868481e-02
1.799220000000000073e+04 4.692899159780989926e-01 9.722009105336831478e-03
1.799239999999999782e+04 4.713788586450209928e-01 8.982604062813653520e-03
1.799259999999999854e+04 4.734495705382020247e-01 1.109789531059787379e-02
1.799279999999999927e+04 4.765088428981720248e-01 1.331084423549289998e-02
1.799300000000000000e+04 4.795946821659829995e-01 1.415280043426860555e-02
1.799320000000000073e+04 4.830401779837120158e-01 1.362894475423317465e-02
1.799339999999999782e+04 4.858857133586930166e-01 1.401085719362481566e-02
1.799359999999999854e+04 4.895064006449519889e-01 1.679476686366119034e-02
1.799379999999999927e+04 4.936289753961650151e-01 1.882207767066474552e-02
1.799400000000000000e+04 4.981796338507240018e-01 1.892142394144611869e-02
1.799420000000000073e+04 5.023477808778730180e-01 1.950871488986339122e-02
1.799439999999999782e+04 5.071678423501529975e-01 2.221558506407304151e-02
1.799459999999999854e+04 5.125776890760489479e-01 2.573178697125581144e-02
1.799479999999999927e+04 5.190107081592160165e-01 2.825851182723180741e-02
1.799500000000000000e+04 5.255796180431470122e-01 2.877582774620321415e-02
1.799520000000000073e+04 5.322499410897140182e-01 3.124194122258703091e-02
1.799539999999999782e+04 5.399501103851790385e-01 3.675107184210735234e-02
1.799559999999999854e+04 5.491475904028459976e-01 3.933356795688085911e-02
1.799579999999999927e+04 5.580324063351269626e-01 4.163302755150027901e-02
1.799600000000000000e+04 5.682846980364679723e-01 4.525278909661759746e-02
1.799620000000000073e+04 5.788299766178159889e-01 4.983966935181775859e-02
1.799639999999999782e+04 5.911863691677400334e-01 5.393230418103477086e-02
1.799659999999999854e+04 6.036090275669080407e-01 5.629098790929894930e-02
1.799679999999999927e+04 6.170473991874819708e-01 5.924455642039096886e-02
1.799700000000000000e+04 6.308249231304160487e-01 6.189432142130996128e-02
1.799720000000000073e+04 6.454787990757889782e-01 6.410598571463847761e-02
1.799739999999999782e+04 6.602708611048939691e-01 6.705543949447538565e-02
1.799759999999999854e+04 6.762777150780959756e-01 6.807229188731708791e-02
1.799779999999999927e+04 6.915362292195560423e-01 6.883516139486768604e-02
1.799800000000000000e+04 7.078930278804429488e-01 6.973419596122396036e-02
1.799820000000000073e+04 7.235639485572640250e-01 6.881106327317682014e-02
1.799839999999999782e+04 7.394972863546189767e-01 6.542388544523111693e-02
1.799859999999999854e+04 7.536144355470759670e-01 5.857696136298932293e-02
1.799879999999999927e+04 7.664069416744809793e-01 5.780613637570023583e-02
1.799900000000000000e+04 7.801704968292070275e-01 5.936225570935730472e-02
1.799920000000000073e+04 7.936768284389880135e-01 5.477308898204826665e-02
1.799939999999999782e+04 8.053352338906499819e-01 4.747431619859032031e-02
1.799959999999999854e+04 8.154934610908469717e-01 4.365582159002659446e-02
1.799979999999999927e+04 8.254002407535070418e-01 4.248537029206276433e-02
1.800000000000000000e+04 8.350215567128399519e-01 3.928154646296814351e-02
1.800020000000000073e+04 8.434586733228109923e-01 3.654658262786007056e-02
1.800039999999999782e+04 8.518254024153859572e-01 3.667218681830397564e-02
1.800059999999999854e+04 8.603201363750629937e-01 3.371372873558420302e-02
1.800079999999999927e+04 8.673297569721190037e-01 3.114065275313697076e-02
1.800100000000000000e+04 8.746441655128940340e-01 3.044120237981340349e-02
1.800120000000000073e+04 8.813329331462109728e-01 3.007101726922013080e-02
1.800139999999999782e+04 8.884775297968450225e-01 3.023825590957388357e-02
1.800159999999999854e+04 8.952430133995219474e-01 2.941321081472921678e-02
1.800179999999999927e+04 9.020091440804359761e-01 2.968025136271770087e-02
1.800200000000000000e+04 9.088971249388559936e-01 3.035356915835664415e-02
1.800220000000000073e+04 9.159721210068060282e-01 2.952703903931819945e-02
1.800239999999999782e+04 9.224809546826470141e-01 3.003818873884819135e-02
1.800259999999999854e+04 9.297904261362169853e-01 3.134671114506205197e-02
1.800279999999999927e+04 9.368995072466910212e-01 3.189708594933488711e-02
1.800300000000000000e+04 9.444614474869730270e-01 3.202673110106905169e-02
1.800320000000000073e+04 9.516299996232050473e-01 3.339626695449615656e-02
1.800339999999999782e+04 9.598201754813100450e-01 3.456930574405871204e-02
1.800359999999999854e+04 9.675268257965740082e-01 3.429350315528531534e-02
1.800379999999999927e+04 9.755904850620960023e-01 3.688369286422522875e-02
1.800400000000000000e+04 9.844853112315109511e-01 3.867948262897908523e-02
1.800420000000000073e+04 9.933727379725380002e-01 3.894582702303991950e-02
1.800439999999999782e+04 1.002389742056720046e+00 4.193384253525013483e-02
1.800459999999999854e+04 1.012647835923460082e+00 4.377166039396842429e-02
1.800479999999999927e+04 1.022507886675990019e+00 4.444438783408012628e-02
1.800500000000000000e+04 1.033074575120960015e+00 4.786094040127577415e-02
1.800520000000000073e+04 1.044501872183970059e+00 5.195773260460016113e-02
1.800539999999999782e+04 1.056947847523679984e+00 5.319190675512197597e-02
1.800559999999999854e+04 1.068941286873640095e+00 5.363514939978719642e-02
1.800579999999999927e+04 1.081590587169309892e+00 5.564466002781644216e-02
1.800600000000000000e+04 1.094505832361770015e+00 5.786599040808153294e-02
1.800620000000000073e+04 1.108174104786320058e+00 6.202737493609791763e-02
1.800639999999999782e+04 1.122998266765180109e+00 6.340704492778422019e-02
1.800659999999999854e+04 1.137299423555359956e+00 6.608982825457319910e-02
1.800679999999999927e+04 1.153354236077110073e+00 7.062398944265282918e-02
1.800700000000000000e+04 1.169735310343569923e+00 7.014573236231158582e-02
1.800720000000000073e+04 1.185570736033159989e+00 7.030026930241133065e-02
1.800739999999999782e+04 1.202022699724980104e+00 7.020020931514997509e-02
1.800759999999999854e+04 1.217812225741500054e+00 7.009181356125390727e-02
1.800779999999999927e+04 1.234214465964700080e+00 7.170901577419816486e-02
1.800800000000000000e+04 1.250745837497039936e+00 7.221873561571678923e-02
1.800820000000000073e+04 1.267381897199169938e+00 7.310471087693540260e-02
1.800839999999999782e+04 1.284319684681789919e+00 7.233374527464535297e-02
1.800859999999999854e+04 1.300602085843060030e+00 7.045637131512003104e-02
1.800879999999999927e+04 1.316678681421689978e+00 6.938924816557848207e-02
1.800900000000000000e+04 1.332471570191140042e+00 7.180636992415190267e-02
1.800920000000000073e+04 1.349656951624399914e+00 7.069049948684509588e-02
1.800939999999999782e+04 1.364937966570030081e+00 6.883473086554857401e-02
1.800959999999999854e+04 1.381272066933380005e+00 6.743198100772344883e-02
1.800979999999999927e+04 1.395909610281550028e+00 6.547424149842323571e-02
1.801000000000000000e+04 1.411345653330549954e+00 6.353009608237128458e-02
1.801020000000000073e+04 1.425091375267979910e+00 5.852790001986538093e-02
1.801039999999999782e+04 1.438232803154499972e+00 5.794747999534119454e-02
1.801059999999999854e+04 1.451712273915030105e+00 5.684400680598331729e-02
1.801079999999999927e+04 1.464347514863139965e+00 5.105598551562584575e-02
1.801100000000000000e+04 1.475171895490009932e+00 4.938586729779528839e-02
1.801120000000000073e+04 1.487041017210189997e+00 5.019470263581456843e-02
1.801139999999999782e+04 1.498236428041819890e+00 4.623290592091460621e-02
1.801159999999999854e+04 1.508288188207590030e+00 4.179833801099851198e-02
1.801179999999999927e+04 1.517449367146679995e+00 3.677240241097196743e-02
1.801200000000000000e+04 1.525195622312619959e+00 3.223480912998413772e-02
1.801220000000000073e+04 1.532275309400429997e+00 2.905068960082473131e-02
1.801239999999999782e+04 1.538560940300689905e+00 2.780707247891581538e-02
1.801259999999999854e+04 1.545070153407019919e+00 2.513904816745474169e-02
1.801279999999999927e+04 1.550131904043249964e+00 1.941548825049530316e-02
1.801300000000000000e+04 1.554015596837440061e+00 1.587727205675928607e-02
1.801320000000000073e+04 1.557454291435089955e+00 1.323886549362004658e-02
1.801339999999999782e+04 1.560127690264679901e+00 1.058849360926988371e-02
1.801359999999999854e+04 1.562350602147029921e+00 7.848071561428507717e-03
1.801379999999999927e+04 1.563766910310220082e+00 4.454076251658061966e-03
1.801400000000000000e+04 1.564432923382319984e+00 2.153034334895714743e-03
1.801420000000000073e+04 1.564793694016560099e+00 -6.045250574937226224e-05
1.801439999999999782e+04 1.564444332960480022e+00 -2.751588014432454054e-03
1.801459999999999854e+04 1.563570621726229959e+00 -3.404982450326102337e-03
1.801479999999999927e+04 1.562921534557689895e+00 -4.131393701383670458e-03
1.801500000000000000e+04 1.561714602823909948e+00 -6.326512714038023434e-03
1.801520000000000073e+04 1.560058567245830030e+00 -7.639129538441533258e-03
1.801539999999999782e+04 1.558249509879690020e+00 -8.780658875032942151e-03
1.801559999999999854e+04 1.556069830187879921e+00 -9.370576146488278357e-03
1.801579999999999927e+04 1.553990165052909989e+00 -9.055010386928939031e-03
1.801600000000000000e+04 1.551955242177410099e+00 -1.008961703087250979e-02
1.801620000000000073e+04 1.549400980672670070e+00 -1.093334609391703911e-02
1.801639999999999782e+04 1.546979021088400019e+00 -9.272649140739193732e-03
1.801659999999999854e+04 1.545186557074399891e+00 -9.443462089469896459e-03
1.801679999999999927e+04 1.542686241908429956e+00 -9.876340096996880091e-03
1.801700000000000000e+04 1.540695207421169943e+00 -9.131040665575995349e-03
1.801720000000000073e+04 1.538536777170220082e+00 -1.002965129083632605e-02
1.801739999999999782e+04 1.536133530618559950e+00 -9.985076600540019470e-03
1.801759999999999854e+04 1.533995547738910004e+00 -8.079772813484346547e-03
1.801779999999999927e+04 1.532466305105449900e+00 -7.427456763295272289e-03
1.801800000000000000e+04 1.530627553659480000e+00 -7.849057176539419797e-03
1.801820000000000073e+04 1.528904913828359913e+00 -7.559350702053996805e-03
1.801839999999999782e+04 1.527199056987240011e+00 -6.900178026293019712e-03
1.801859999999999854e+04 1.525778793871749972e+00 -6.613472145940523135e-03
1.801879999999999927e+04 1.524204455198209907e+00 -6.868264022513163869e-03
1.801900000000000000e+04 1.522667313556590019e+00 -6.370557378577029750e-03
1.801920000000000073e+04 1.521321283649289979e+00 -5.551480114810754783e-03
1.801939999999999782e+04 1.520159870404780067e+00 -4.636740161219943951e-03
1.801959999999999854e+04 1.519233451432510096e+00 -3.697020977614801692e-03
1.801979999999999927e+04 1.518503107634280092e+00 -3.682545733231715971e-03
1.802000000000000000e+04 1.517583328768639994e+00 -4.080446206277542516e-03
1.802020000000000073e+04 1.516670459446199937e+00 -2.995090325736384212e-03
1.802039999999999782e+04 1.516248556719129947e+00 -2.828149073542841375e-03
